5000
1000
 -0.010683
 -0.022141
 -0.010047
 -0.020868
  -0.01132
  -0.01132
  -0.00941
 -0.020868
 -0.012593
 -0.010047
 -0.000499
  -0.01132
  0.008412
  0.009049
  0.004593
  0.003957
  0.009049
  0.015414
  0.017323
   0.01796
  0.009685
  0.016687
  0.016687
  0.018596
  0.019869
   0.01796
  0.018596
  0.019233
  0.018596
   0.01796
  0.018596
  0.019869
  0.018596
  0.017323
  0.017323
  0.019869
  0.028144
  0.026871
  0.028144
  0.028144
  0.026871
  0.027508
  0.028144
  0.027508
  0.027508
  0.027508
  0.027508
  0.027508
  0.026871
   0.01796
   0.01796
  0.017323
  0.026871
  0.019233
  0.019233
  0.019233
  0.019869
  0.024962
  0.020506
  0.016687
  0.018596
  0.018596
  0.008412
  0.007139
  0.009049
  0.018596
  0.009685
  0.007776
  0.008412
  0.008412
 -0.000499
 -0.001136
  0.000137
  0.009049
 -0.001772
 -0.000499
 -0.010047
 -0.010683
  -0.01132
  0.000137
 -0.010047
 -0.010683
 -0.010683
 -0.010683
 -0.008774
  -0.01132
 -0.010683
 -0.010683
 -0.010047
 -0.010683
  -0.01132
 -0.010683
  -0.00941
 -0.010047
 -0.010683
 -0.010047
 -0.008774
  -0.00941
 -0.011956
 -0.011956
 -0.010683
 -0.008774
 -0.010683
  -0.01132
 -0.010683
  -0.00941
 -0.010683
  -0.01132
 -0.010047
 -0.008774
 -0.010683
  -0.01132
  -0.01132
 -0.010047
  -0.00941
 -0.010683
  -0.01132
 -0.010683
  -0.00941
 -0.010047
  -0.01132
 -0.010683
 -0.010047
 -0.010683
  -0.01132
 -0.010683
 -0.010683
 -0.010683
  -0.01132
 -0.010047
 -0.010047
  -0.00941
  -0.01132
 -0.010047
  -0.00941
 -0.010047
 -0.010683
  -0.00941
 -0.010047
 -0.008774
  -0.01132
  -0.00941
 -0.010683
 -0.010683
 -0.010683
 -0.010047
 -0.010047
 -0.011956
  -0.01132
  -0.00941
 -0.010047
 -0.011956
 -0.010683
  0.007776
 -0.020868
 -0.001136
 -0.010683
 -0.001136
 -0.020231
 -0.002409
 -0.022141
 -0.039963
   -0.0406
 -0.069879
 -0.049511
 -0.076881
 -0.048874
 -0.147534
 -0.088338
  -0.29075
 -0.115708
 -0.204184
 -0.145625
 -0.232827
 -0.146261
 -0.223916
  -0.13735
 -0.201638
 -0.116981
    -0.194
 -0.144352
 -0.154536
 -0.183815
 -0.137986
 -0.111889
 -0.076881
 -0.092157
 -0.062878
 -0.100432
 -0.061605
 -0.058422
 -0.049511
 -0.048874
 -0.028506
 -0.010047
  -0.01132
  0.045967
  0.030054
  0.037055
  0.028144
  0.094342
  0.047876
  0.087977
  0.047876
  0.133806
  0.076519
  0.145263
  0.078429
  0.161812
  0.086067
  0.221008
  0.095615
  0.210824
  0.114074
  0.203186
  0.103889
  0.189819
  0.113437
  0.212734
   0.11662
  0.191092
  0.117256
  0.184727
  0.170087
  0.120439
  0.051059
  0.046603
  0.023689
  0.010322
 -0.027233
  0.004593
 -0.053966
 -0.023414
 -0.022141
 -0.021504
 -0.104888
  -0.05142
 -0.050784
 -0.031052
 -0.027233
 -0.029142
 -0.029779
 -0.029779
 -0.028506
 -0.030415
 -0.029142
 -0.029142
 -0.029142
 -0.030415
 -0.029779
 -0.029142
 -0.029142
 -0.031052
 -0.029779
 -0.029142
 -0.029779
 -0.029779
 -0.029779
 -0.029142
 -0.031052
 -0.029142
 -0.029142
 -0.029142
 -0.031688
 -0.029142
 -0.030415
 -0.031052
 -0.030415
 -0.030415
 -0.029779
 -0.029142
 -0.031688
 -0.030415
 -0.028506
 -0.029142
 -0.030415
 -0.029779
 -0.029142
 -0.031052
 -0.029779
 -0.029142
 -0.029142
 -0.031052
 -0.029779
 -0.029142
 -0.029779
 -0.030415
 -0.029142
 -0.029779
 -0.029779
 -0.031052
 -0.029142
 -0.028506
 -0.028506
 -0.030415
 -0.030415
 -0.029779
 -0.028506
 -0.028506
 -0.030415
 -0.030415
 -0.029142
 -0.029779
 -0.031052
 -0.030415
 -0.029779
 -0.030415
 -0.030415
 -0.030415
 -0.029142
 -0.029142
 -0.030415
 -0.030415
 -0.029142
 -0.028506
 -0.031688
 -0.029779
 -0.028506
 -0.029142
   -0.0406
 -0.031052
 -0.031052
 -0.029142
 -0.031052
 -0.031688
 -0.039327
 -0.029142
 -0.030415
 -0.030415
 -0.029142
 -0.020868
 -0.020868
 -0.020231
 -0.018958
 -0.020231
 -0.021504
 -0.018958
 -0.029779
 -0.021504
 -0.020868
 -0.019595
 -0.020231
 -0.019595
 -0.019595
 -0.020231
 -0.020231
 -0.010047
 -0.010683
 -0.014502
 -0.018322
 -0.018322
 -0.020231
 -0.019595
  -0.00941
 -0.010683
  -0.01132
 -0.010047
 -0.010047
 -0.020868
 -0.011956
 -0.018322
 -0.010683
 -0.022141
 -0.010683
 -0.019595
  -0.01132
 -0.011956
 -0.010683
 -0.020868
 -0.010047
 -0.020231
 -0.011956
 -0.020231
 -0.010047
 -0.020868
 -0.010683
 -0.021504
 -0.010047
 -0.010683
 -0.001772
 -0.010047
 -0.000499
  -0.01132
 -0.003045
 -0.010047
 -0.000499
  -0.01132
 -0.000499
 -0.008774
 -0.003045
   0.00332
  0.002047
  0.005866
  0.009049
  0.007776
   0.00141
  0.008412
  0.007776
  0.010958
  0.009049
  0.016687
  0.018596
  0.019869
  0.019233
   0.01796
  0.009049
  0.019233
   0.01796
   0.01796
  0.019233
  0.016687
  0.017323
  0.017323
  0.037692
  0.027508
  0.027508
  0.028144
  0.028144
  0.026871
  0.028144
  0.028144
  0.028144
  0.027508
  0.038965
  0.028781
  0.028144
  0.026871
  0.028781
  0.028144
  0.055514
  0.037692
  0.037055
  0.035782
  0.037055
  0.044694
  0.038328
  0.037692
  0.037692
  0.045967
  0.037055
  0.046603
  0.038965
  0.037692
  0.037055
  0.046603
  0.038328
   0.04724
  0.037692
  0.038328
  0.038965
  0.036419
  0.028781
  0.038328
  0.028144
  0.026871
  0.028144
  0.038965
  0.026871
  0.027508
  0.028144
  0.028144
  0.016687
  0.018596
  0.019233
  0.018596
   0.01796
  0.026871
  0.019233
  0.019233
  0.017323
  0.018596
  0.018596
  0.015414
  0.007139
  0.008412
  0.009685
  0.009049
   0.01605
  0.010958
  0.009049
  0.007776
  0.007776
  0.009049
  0.009685
  0.000137
 -0.001136
 -0.000499
   0.00141
 -0.001136
  0.008412
 -0.001136
 -0.000499
  0.000137
 -0.002409
 -0.010047
 -0.010047
 -0.011956
 -0.010683
  -0.00941
 -0.010683
  -0.01132
 -0.000499
  -0.00941
 -0.010047
  -0.01132
  -0.00941
 -0.008774
 -0.010683
  -0.01132
 -0.010047
 -0.010683
 -0.010683
  -0.01132
 -0.010683
 -0.008774
 -0.010683
 -0.010683
  -0.00941
 -0.010047
 -0.010047
 -0.010683
 -0.010047
 -0.008774
 -0.010683
 -0.011956
 -0.010683
 -0.010047
 -0.010683
  -0.01132
 -0.010047
 -0.008774
 -0.010047
  -0.01132
 -0.010683
  -0.00941
 -0.008774
 -0.010683
 -0.010683
 -0.010683
  -0.00941
 -0.010047
  -0.01132
 -0.011956
 -0.010683
 -0.010047
 -0.010683
 -0.010683
 -0.011956
  -0.00941
 -0.010047
 -0.010047
 -0.010683
 -0.010047
  -0.00941
 -0.010683
 -0.010683
 -0.011956
 -0.008774
 -0.010683
  -0.01132
  -0.00941
  -0.00941
 -0.010683
 -0.010047
  -0.01132
  -0.00941
 -0.010047
 -0.010047
 -0.010683
 -0.010683
 -0.008774
 -0.010683
  -0.01132
 -0.010683
  -0.01132
 -0.010683
  -0.01132
 -0.008774
 -0.010683
 -0.011956
 -0.010683
 -0.010047
 -0.010047
  -0.01132
 -0.010047
 -0.008774
 -0.010047
  -0.00941
  -0.01132
 -0.010683
  -0.00941
 -0.010047
  -0.01132
  -0.00941
 -0.008774
 -0.010683
 -0.010047
 -0.010683
 -0.010683
  -0.01132
 -0.010683
 -0.010047
  -0.00941
 -0.010047
 -0.010047
 -0.010683
 -0.008774
 -0.010047
 -0.010683
  -0.00941
  -0.00941
 -0.010047
  -0.01132
  -0.01132
 -0.008774
  -0.00941
 -0.010683
  -0.01132
 -0.010047
 -0.008774
  -0.01132
  -0.01132
 -0.010683
 -0.010047
 -0.010683
  -0.01132
 -0.010683
 -0.010047
  -0.01132
 -0.010047
 -0.010047
 -0.010047
  -0.01132
  -0.01132
 -0.010047
 -0.010683
 -0.010683
 -0.010683
 -0.010047
 -0.010047
 -0.010683
 -0.010683
 -0.010047
 -0.010047
 -0.010683
  -0.01132
  -0.00941
 -0.010047
 -0.010683
 -0.010683
 -0.010047
 -0.010683
  -0.01132
  -0.00941
 -0.010683
 -0.010047
 -0.012593
 -0.010047
 -0.010047
 -0.010683
 -0.010683
 -0.010047
 -0.010683
 -0.011956
 -0.010047
 -0.008774
 -0.010683
  -0.01132
 -0.010683
 -0.008774
 -0.010047
 -0.011956
  -0.01132
 -0.010683
  -0.00941
 -0.010683
  -0.01132
 -0.010047
 -0.010683
 -0.008774
 -0.011956
 -0.017685
 -0.020231
 -0.006228
 -0.004955
  0.019233
  0.010958
  0.042784
  0.030054
  0.063789
  0.038965
  0.073973
  0.049149
  0.094978
  0.066972
  0.103889
  0.075246
  0.123621
  0.086704
  0.123621
  0.086067
  0.132533
  0.096251
  0.145263
  0.105799
  0.143353
  0.105162
  0.152901
  0.106435
  0.154174
   0.11471
  0.152901
   0.11471
  0.163722
  0.113437
  0.152265
  0.114074
  0.162449
   0.12744
  0.164358
  0.126167
  0.163085
  0.133169
  0.150355
  0.144626
  0.144626
  0.163085
  0.149719
  0.169451
  0.147809
  0.169451
  0.146536
   0.17136
  0.154811
  0.182181
  0.163722
  0.192365
  0.175179
  0.193002
  0.183454
  0.201913
  0.193002
  0.212734
  0.203186
   0.21337
  0.212097
  0.232466
  0.233739
  0.242013
  0.250288
  0.249651
  0.250924
  0.261109
  0.271293
  0.269383
  0.289752
  0.290388
  0.299936
  0.291025
  0.307574
  0.299936
  0.319668
    0.2993
  0.315849
   0.29739
  0.311393
  0.315213
  0.303119
   0.31012
  0.296754
  0.315213
  0.276385
  0.296754
  0.263655
   0.29739
  0.251561
  0.287206
   0.24265
  0.279568
  0.233102
  0.259836
  0.201276
   0.24074
  0.183454
  0.231192
   0.17136
  0.212097
  0.154811
  0.191729
  0.132533
  0.172633
  0.115983
  0.154174
  0.094978
  0.134442
  0.077156
  0.125531
  0.065062
  0.103889
   0.04724
  0.075883
  0.026871
  0.065699
  0.017323
  0.058697
  0.013504
  0.033873
  0.021779
  0.009049
  0.009685
 -0.004955
  0.011595
 -0.015139
  0.004593
 -0.010683
  0.015414
 -0.008774
  0.006503
  -0.01132
  0.006503
 -0.001136
   0.01796
  0.008412
  0.018596
  0.019233
  0.037055
  0.036419
   0.04533
  0.047876
   0.04533
  0.045967
  0.056151
  0.056151
  0.056151
  0.056787
  0.056787
  0.047876
  0.048513
   0.04533
  0.047876
  0.047876
   0.04724
  0.035782
  0.038965
  0.037692
  0.037055
  0.026871
  0.035146
  0.036419
   0.03069
  0.026235
  0.027508
  0.035146
  0.029417
  0.026871
  0.019233
  0.018596
  0.009049
   0.01605
  0.017323
  0.018596
  0.008412
   0.01796
  0.009685
  0.009049
 -0.001136
 -0.001136
 -0.010683
 -0.001772
 -0.010683
 -0.000499
  -0.01132
 -0.010047
 -0.018958
 -0.010683
 -0.020868
 -0.022141
 -0.029142
 -0.020868
 -0.031052
 -0.029779
 -0.039327
 -0.029779
 -0.042509
   -0.0406
 -0.050147
 -0.039327
 -0.050784
 -0.049511
 -0.055876
 -0.052693
  -0.05333
 -0.055876
 -0.057785
 -0.064787
 -0.067333
 -0.076244
 -0.069879
 -0.078154
 -0.076881
 -0.087065
 -0.079427
 -0.087702
 -0.087702
 -0.096613
 -0.098522
 -0.107434
 -0.097886
  -0.10807
  -0.10807
 -0.118254
 -0.117618
 -0.117618
 -0.108707
 -0.117618
 -0.115708
 -0.127802
 -0.128439
 -0.136713
 -0.136077
 -0.136077
  -0.13735
 -0.146261
 -0.144988
 -0.146261
 -0.148171
 -0.155172
 -0.155809
 -0.155809
 -0.156445
 -0.165993
 -0.165357
 -0.171722
 -0.176177
 -0.174904
 -0.183815
 -0.186362
 -0.185089
 -0.192727
 -0.194636
 -0.195273
 -0.195909
 -0.203547
 -0.204184
  -0.20482
 -0.204184
 -0.213732
 -0.214368
 -0.223916
 -0.213732
 -0.223916
 -0.225189
 -0.223916
 -0.213732
 -0.224552
 -0.223916
   -0.2341
 -0.225189
 -0.235373
 -0.225189
 -0.232191
 -0.225189
 -0.235373
 -0.225825
 -0.233464
 -0.224552
 -0.234737
 -0.214368
 -0.223916
 -0.215641
 -0.224552
 -0.204184
 -0.213732
 -0.209276
 -0.205457
 -0.199728
 -0.192727
 -0.192727
 -0.186998
  -0.19209
 -0.176814
 -0.185725
 -0.167266
 -0.174904
 -0.157718
  -0.16663
 -0.146898
 -0.155172
 -0.148171
 -0.156445
 -0.136713
 -0.146898
 -0.127802
  -0.13735
 -0.116981
 -0.127166
  -0.10807
 -0.106797
 -0.097249
  -0.10807
 -0.090248
 -0.098522
 -0.077517
 -0.088338
 -0.080063
 -0.088338
 -0.067333
 -0.068606
 -0.059058
  -0.06797
 -0.048874
 -0.050147
   -0.0406
 -0.049511
  -0.03869
 -0.035507
  -0.03678
 -0.034234
 -0.029142
 -0.022141
 -0.021504
 -0.020231
 -0.020231
 -0.010683
 -0.018958
 -0.019595
 -0.018322
 -0.010683
 -0.008774
  -0.01132
 -0.010047
 -0.010047
 -0.010047
  -0.01132
  -0.01132
 -0.010047
 -0.010047
 -0.010047
 -0.010683
  -0.01132
 -0.010047
 -0.010683
 -0.010683
 -0.010683
 -0.010683
 -0.008774
 -0.010683
  -0.01132
  -0.01132
  -0.00941
 -0.010683
 -0.010047
 -0.010683
 -0.010683
 -0.010683
 -0.010683
  -0.01132
 -0.010683
 -0.010047
 -0.010047
 -0.010047
 -0.010683
 -0.010047
 -0.010683
 -0.010683
 -0.010683
 -0.010683
 -0.010047
 -0.008774
 -0.010683
  -0.01132
 -0.010683
 -0.010047
 -0.010047
 -0.010047
 -0.010683
 -0.010683
 -0.008137
 -0.010683
 -0.010047
 -0.010683
 -0.010047
 -0.010047
  -0.00941
 -0.010047
 -0.010047
 -0.010683
 -0.008774
 -0.010047
 -0.010683
 -0.010683
 -0.008774
 -0.010683
 -0.010683
  -0.00941
 -0.010047
 -0.008774
 -0.010683
 -0.010683
 -0.010047
 -0.008774
 -0.010047
  -0.01132
 -0.010683
 -0.010047
  -0.00941
 -0.010047
  -0.01132
 -0.010683
 -0.010683
 -0.010683
  -0.01132
 -0.010683
 -0.010047
 -0.010047
 -0.010047
 -0.010683
  -0.00941
 -0.010047
 -0.010683
 -0.010683
  -0.00941
  -0.00941
 -0.010683
 -0.011956
 -0.010047
 -0.010047
 -0.010683
 -0.010683
 -0.010683
  -0.00941
 -0.010683
 -0.010683
 -0.010047
 -0.008137
 -0.010047
 -0.010683
  -0.01132
 -0.008774
 -0.010683
 -0.010047
 -0.010683
  -0.00941
 -0.010047
  -0.01132
  -0.00941
  -0.00941
 -0.010683
  -0.01132
 -0.010683
 -0.008774
 -0.010047
 -0.011956
 -0.010047
  -0.00941
  -0.00941
 -0.012593
 -0.010683
 -0.010683
 -0.008774
  -0.00941
  -0.01132
 -0.010683
  -0.00941
 -0.010683
 -0.010683
 -0.010047
 -0.010047
 -0.010047
 -0.010683
 -0.010047
 -0.010047
 -0.010683
  -0.01132
 -0.010047
 -0.010047
 -0.010683
 -0.010683
 -0.010047
 -0.010047
 -0.010683
  -0.01132
 -0.010047
 -0.010047
 -0.008137
 -0.010047
  -0.01132
 -0.010683
 -0.010683
  -0.00941
 -0.010047
  -0.01132
 -0.010683
 -0.010047
  -0.00941
 -0.010683
 -0.011956
 -0.010683
 -0.008774
  -0.00941
  -0.01132
 -0.010047
 -0.010047
 -0.010683
  -0.01132
 -0.011956
 -0.010683
  -0.00941
 -0.010683
 -0.011956
  -0.00941
  -0.00941
 -0.010047
 -0.010047
  -0.01132
 -0.010047
 -0.008774
 -0.010683
 -0.010683
 -0.010683
 -0.010047
 -0.008774
  -0.00941
 -0.010683
 -0.010047
 -0.010683
 -0.010047
 -0.010047
  -0.01132
 -0.010683
 -0.010047
 -0.010683
 -0.010683
 -0.010047
 -0.010683
  -0.00941
 -0.010047
 -0.011956
  -0.00941
 -0.010047
 -0.010047
 -0.010683
 -0.010683
 -0.008774
 -0.010047
  -0.01132
 -0.010683
  -0.00941
 -0.010683
 -0.010683
 -0.010683
  -0.00941
 -0.012593
 -0.010683
 -0.010047
 -0.010047
 -0.010047
 -0.010047
 -0.010047
 -0.010683
 -0.010683
  -0.00941
 -0.010047
 -0.010683
  -0.01132
 -0.010047
 -0.010047
 -0.010683
 -0.010683
 -0.010683
  -0.00941
 -0.010047
  -0.00941
 -0.010683
 -0.010683
 -0.011956
 -0.010047
 -0.008774
 -0.010047
 -0.010683
  -0.00941
 -0.010683
 -0.010683
  -0.01132
 -0.010683
 -0.010047
 -0.010683
 -0.010047
 -0.008774
 -0.010683
  -0.01132
  -0.01132
 -0.010047
  -0.00941
 -0.010047
 -0.010683
 -0.010683
 -0.008137
 -0.010683
 -0.010683
 -0.010683
  -0.00941
  -0.01132
  -0.01132
 -0.010047
 -0.010683
 -0.010683
  -0.00941
 -0.008774
 -0.010683
  -0.01132
 -0.010047
  -0.00941
 -0.010683
  -0.01132
 -0.010047
 -0.008774
 -0.010683
  -0.01132
 -0.010683
 -0.008774
 -0.010047
  -0.01132
 -0.010683
 -0.008774
 -0.010683
 -0.010683
 -0.010683
 -0.010683
 -0.010683
 -0.010047
  -0.01132
 -0.008774
 -0.008774
 -0.010683
 -0.012593
  -0.00941
 -0.008774
 -0.008774
 -0.011956
 -0.010683
 -0.010683
 -0.010047
 -0.010047
 -0.010683
 -0.010047
  -0.00941
 -0.010047
 -0.010683
  -0.01132
 -0.010047
 -0.008774
 -0.010047
  -0.01132
 -0.010047
 -0.008774
  -0.00941
  -0.00941
  -0.01132
 -0.010047
  -0.00941
  -0.00941
 -0.010047
  -0.01132
 -0.010683
 -0.008774
 -0.010047
  -0.01132
 -0.010683
 -0.010047
 -0.010683
  -0.00941
  -0.00941
  -0.01132
 -0.010683
 -0.008774
 -0.010047
 -0.010047
 -0.011956
 -0.010683
 -0.010047
 -0.010047
 -0.010683
 -0.010683
 -0.010047
 -0.010683
 -0.010047
 -0.010683
 -0.010047
 -0.010683
  -0.01132
 -0.010047
  -0.00941
 -0.010047
 -0.010047
 -0.010683
 -0.010047
 -0.008774
 -0.010047
 -0.010047
 -0.010683
  -0.00941
 -0.010683
 -0.010683
 -0.010683
 -0.010047
 -0.010047
  -0.01132
 -0.010683
 -0.010047
 -0.010047
 -0.010683
 -0.010047
 -0.010047
 -0.010683
 -0.010683
  -0.01132
 -0.010047
  -0.00941
 -0.010683
  -0.01132
 -0.010683
 -0.010683
  -0.00941
 -0.010047
  -0.01132
 -0.010683
  -0.00941
 -0.010683
 -0.010683
  -0.00941
  -0.00941
 -0.010047
 -0.010047
  -0.01132
 -0.010683
  -0.00941
 -0.010047
 -0.011956
 -0.010683
  -0.00941
 -0.010047
  -0.01132
 -0.010683
 -0.008774
  -0.00941
 -0.010683
 -0.010047
 -0.010683
 -0.010047
 -0.010047
 -0.010683
 -0.010683
  -0.00941
 -0.010683
  -0.01132
 -0.010683
 -0.010047
 -0.010683
 -0.010683
 -0.010683
 -0.008774
 -0.010683
 -0.010683
  -0.01132
 -0.008774
 -0.010683
 -0.010683
 -0.010683
 -0.010683
 -0.010047
 -0.010047
  -0.01132
 -0.010047
 -0.008774
 -0.010683
  -0.01132
 -0.008774
 -0.010047
 -0.010047
 -0.011956
 -0.010047
 -0.010047
  -0.01132
 -0.010683
  -0.00941
 -0.010683
 -0.010047
 -0.011956
 -0.010683
  -0.00941
  -0.01132
 -0.010683
 -0.010047
 -0.010047
 -0.011956
 -0.011956
  -0.00941
 -0.010047
  -0.01132
 -0.010683
 -0.010047
 -0.010047
 -0.010683
 -0.010683
 -0.008774
 -0.010047
  -0.01132
 -0.010683
  -0.00941
 -0.010683
 -0.010047
 -0.010683
 -0.010683
 -0.010047
 -0.010683
 -0.010683
  -0.00941
 -0.008774
 -0.010683
 -0.010683
 -0.010683
  -0.00941
 -0.010683
  -0.01132
 -0.010683
  -0.00941
 -0.010683
 -0.011956
 -0.010047
 -0.010047
 -0.010683
 -0.010683
 -0.010047
  -0.00941
 -0.010047
  -0.01132
 -0.010683
 -0.010683
 -0.010683
 -0.010683
  -0.01132
 -0.010683
 -0.010047
 -0.010683
 -0.010683
 -0.010047
  -0.00941
 -0.010683
 -0.010683
 -0.010047
 -0.010047
 -0.010047
 -0.010683
  -0.00941
 -0.010047
 -0.010047
 -0.010683
 -0.010683
  -0.00941
 -0.010047
  -0.01132
 -0.010683
 -0.010047
  -0.01132
 -0.010047
 -0.008774
 -0.010683
 -0.010683
  -0.01132
 -0.008774
 -0.010047
  -0.00941
  -0.01132
 -0.010683
  -0.00941
 -0.010047
 -0.010683
 -0.010047
 -0.008774
 -0.010683
 -0.010683
  -0.01132
  -0.00941
 -0.010683
  -0.01132
 -0.010683
 -0.010683
 -0.010683
  -0.01132
 -0.010683
  -0.00941
 -0.010047
 -0.010683
 -0.010047
 -0.010047
 -0.010683
  -0.01132
 -0.011956
 -0.010683
  -0.00941
  -0.01132
 -0.017048
  -0.01132
 -0.018322
 -0.013229
 -0.010683
  -0.00941
 -0.020231
 -0.011956
 -0.010047
  0.000137
 -0.010683
  0.007139
  0.009049
  0.009685
  0.000137
  0.008412
  0.008412
   0.01796
  0.019233
  0.017323
  0.007776
  0.017323
  0.019233
  0.018596
  0.018596
  0.018596
  0.019869
   0.01796
  0.017323
  0.017323
  0.019869
  0.019233
   0.01796
  0.017323
  0.018596
  0.019233
  0.028144
  0.026871
  0.027508
  0.029417
  0.028144
  0.026871
  0.027508
  0.028781
  0.026871
  0.027508
  0.027508
  0.028781
  0.018596
   0.01605
  0.017323
  0.028781
  0.019233
  0.017323
  0.019233
  0.018596
  0.019233
  0.026871
  0.017323
  0.019233
  0.019233
  0.018596
  0.008412
  0.008412
  0.008412
  0.020506
  0.009049
  0.007776
  0.006503
  0.008412
 -0.000499
 -0.000499
 -0.000499
  0.007139
 -0.001772
 -0.000499
  -0.00941
 -0.010683
 -0.010683
 -0.000499
  -0.00941
  -0.00941
 -0.010683
 -0.010683
 -0.010047
 -0.010047
 -0.010047
 -0.010683
 -0.010047
 -0.010683
 -0.010047
 -0.010683
  -0.01132
  -0.01132
 -0.010683
 -0.010683
 -0.011956
 -0.010683
 -0.010047
 -0.010047
 -0.010047
 -0.010683
 -0.010047
 -0.008774
 -0.010047
 -0.010683
 -0.010683
  -0.00941
 -0.010047
 -0.010683
  -0.00941
 -0.008774
 -0.010047
  -0.01132
  -0.00941
 -0.008774
 -0.010683
 -0.010683
 -0.010683
 -0.008774
 -0.010047
 -0.010683
 -0.010683
 -0.010047
 -0.010047
 -0.010683
  -0.01132
 -0.010047
 -0.008774
 -0.010047
 -0.010683
 -0.010047
  -0.00941
  -0.01132
  -0.01132
 -0.010683
  -0.00941
 -0.010047
  -0.01132
  -0.01132
 -0.008774
 -0.010047
  -0.01132
 -0.010047
  -0.00941
 -0.010047
 -0.011956
 -0.010047
  -0.00941
 -0.010047
 -0.010683
  -0.01132
 -0.010047
  0.007776
 -0.020231
 -0.001136
 -0.010683
 -0.001772
 -0.020868
 -0.001772
 -0.021504
   -0.0406
 -0.039963
 -0.067333
 -0.059058
 -0.062878
 -0.107434
 -0.106797
 -0.241738
 -0.148807
 -0.191454
 -0.152626
 -0.225189
 -0.153899
  -0.22137
 -0.140532
 -0.199728
 -0.117618
 -0.203547
 -0.127802
 -0.183815
 -0.125893
 -0.222006
 -0.097886
 -0.116981
  -0.06797
 -0.097249
 -0.057149
 -0.106797
 -0.058422
 -0.059058
 -0.049511
 -0.049511
 -0.029779
 -0.010047
  -0.01132
  0.046603
  0.028781
  0.037055
  0.027508
  0.093705
   0.04724
  0.087977
  0.049786
  0.136988
   0.08734
  0.121075
  0.121075
  0.115347
  0.180271
  0.124258
  0.192365
  0.128714
  0.193002
  0.111528
  0.187273
  0.117893
  0.208914
   0.11662
  0.190456
  0.096888
  0.221008
  0.125531
  0.210187
  0.065062
  0.047876
  0.049149
  0.018596
  0.009049
 -0.031052
  0.007776
 -0.058422
 -0.020868
 -0.022777
 -0.020868
  -0.10807
 -0.048874
 -0.049511
 -0.030415
 -0.030415
 -0.030415
 -0.029142
 -0.029779
 -0.029142
 -0.029779
 -0.029142
 -0.029779
 -0.031052
 -0.029779
 -0.030415
 -0.029779
 -0.029142
 -0.029142
 -0.029779
 -0.030415
 -0.030415
 -0.029142
 -0.029142
 -0.029142
 -0.030415
 -0.029142
 -0.029779
 -0.030415
 -0.031052
 -0.029142
 -0.029142
 -0.029779
 -0.031052
 -0.028506
 -0.029779
 -0.030415
 -0.029142
 -0.029779
 -0.030415
 -0.030415
 -0.030415
 -0.029142
 -0.031052
 -0.030415
 -0.029142
 -0.027869
 -0.029142
 -0.030415
 -0.030415
 -0.030415
 -0.031052
 -0.031052
 -0.029142
 -0.029142
 -0.029142
 -0.029779
 -0.029142
 -0.029142
 -0.030415
 -0.029779
 -0.029142
 -0.029142
 -0.031052
 -0.030415
 -0.029142
 -0.029779
 -0.030415
 -0.029779
 -0.029142
 -0.030415
 -0.029779
 -0.028506
 -0.030415
 -0.031052
 -0.029142
 -0.029142
 -0.029142
 -0.031052
 -0.030415
 -0.029779
 -0.029142
 -0.031052
 -0.029779
 -0.029142
 -0.039327
 -0.031688
 -0.029142
 -0.031052
 -0.029142
 -0.030415
   -0.0406
 -0.030415
 -0.028506
 -0.031688
 -0.031052
 -0.020868
 -0.018322
 -0.020231
 -0.020868
 -0.020868
 -0.018958
 -0.028506
 -0.022141
 -0.020868
 -0.019595
 -0.018958
 -0.021504
 -0.020231
 -0.018958
 -0.020231
 -0.011956
 -0.010683
 -0.010047
 -0.018322
 -0.019595
 -0.018322
 -0.017685
 -0.018958
  -0.01132
 -0.012593
 -0.010683
 -0.010047
 -0.010683
 -0.020868
 -0.010683
 -0.020231
 -0.010683
 -0.022777
  -0.01132
 -0.018958
 -0.010047
 -0.010683
 -0.010683
 -0.020868
 -0.010047
 -0.019595
 -0.011956
 -0.018322
 -0.013866
 -0.015139
 -0.018322
 -0.013229
 -0.010047
 -0.002409
 -0.010683
 -0.000499
 -0.008774
 -0.001136
 -0.010683
 -0.001772
 -0.010047
 -0.002409
 -0.010047
 -0.000499
 -0.000499
  0.007139
 -0.002409
  0.008412
  0.009049
  0.009049
 -0.001772
  0.009049
  0.010958
  0.009049
  0.007776
  0.019869
  0.019869
  0.018596
   0.01796
  0.019233
  0.007776
  0.016687
  0.017323
  0.019233
   0.01796
  0.017323
  0.017323
   0.01796
  0.037692
  0.026871
  0.028781
  0.028781
  0.028144
  0.027508
  0.028144
  0.028781
  0.029417
  0.035782
  0.029417
  0.027508
  0.027508
  0.027508
  0.029417
  0.057424
  0.038328
  0.037055
  0.037055
  0.035146
  0.037055
  0.047876
  0.037692
  0.035782
  0.037055
   0.04724
  0.037055
  0.045967
  0.038328
  0.037692
  0.037692
   0.04724
  0.037692
  0.048513
  0.037055
  0.037692
  0.037692
  0.038328
  0.026871
  0.037055
  0.027508
  0.029417
  0.028781
  0.034509
  0.028144
  0.030054
  0.026871
  0.020506
  0.018596
  0.018596
  0.017323
  0.018596
  0.028781
  0.018596
  0.017323
   0.01796
  0.019233
  0.017323
  0.016687
  0.009049
  0.009049
  0.009049
  0.007776
  0.009049
  0.019233
  0.009685
  0.008412
  0.009049
  0.009049
  0.009049
  0.008412
 -0.000499
 -0.001772
 -0.000499
  0.000137
 -0.001136
  0.007139
 -0.001136
 -0.001136
 -0.001772
 -0.000499
 -0.010047
 -0.010683
 -0.011956
 -0.010047
 -0.010047
 -0.010047
 -0.005591
 -0.006864
  -0.00941
 -0.010683
  -0.01132
 -0.010683
 -0.008774
  -0.01132
  -0.01132
 -0.010683
  -0.00941
 -0.010047
  -0.01132
 -0.011956
 -0.010683
 -0.010683
 -0.008774
 -0.010683
 -0.010683
  -0.01132
  -0.00941
  -0.00941
 -0.010047
  -0.01132
  -0.01132
 -0.010047
 -0.008774
 -0.010683
 -0.010683
  -0.01132
 -0.010683
 -0.008774
 -0.010047
 -0.011956
 -0.010683
  -0.00941
 -0.010683
 -0.010047
 -0.010683
 -0.010047
 -0.008774
 -0.010683
 -0.010683
 -0.010683
 -0.008774
 -0.010683
 -0.011956
 -0.010683
  -0.00941
 -0.010047
  -0.01132
 -0.010683
 -0.010683
 -0.010683
  -0.01132
 -0.010683
  -0.00941
 -0.010047
 -0.010683
 -0.010683
 -0.008774
 -0.010683
 -0.010683
 -0.010683
 -0.010047
 -0.010047
 -0.010683
 -0.010683
  -0.00941
 -0.010683
 -0.011956
 -0.010047
 -0.010047
 -0.010047
  -0.01132
 -0.010683
  -0.00941
 -0.010047
  -0.01132
 -0.010047
 -0.008774
 -0.010683
 -0.010047
 -0.010683
 -0.008774
 -0.010683
 -0.010683
 -0.010683
  -0.00941
 -0.010047
 -0.010683
 -0.012593
 -0.010683
  -0.00941
 -0.010683
  -0.01132
 -0.010047
 -0.010683
 -0.010047
 -0.008774
  -0.01132
 -0.010683
 -0.010683
 -0.011956
  -0.00941
 -0.010047
  -0.01132
  -0.01132
 -0.010047
 -0.010683
 -0.010683
 -0.010683
 -0.010047
  -0.00941
 -0.010047
 -0.011956
  -0.00941
 -0.008774
 -0.010047
 -0.010683
 -0.010683
 -0.008774
 -0.010047
 -0.011956
 -0.010047
 -0.010047
 -0.010047
  -0.01132
  -0.01132
 -0.010047
 -0.008774
 -0.010683
 -0.011956
  -0.00941
 -0.010683
 -0.008137
  -0.00941
 -0.010683
 -0.010047
 -0.008774
 -0.010047
 -0.010683
 -0.010047
 -0.008774
  -0.01132
 -0.011956
 -0.010683
  -0.00941
 -0.010047
 -0.010683
 -0.010683
 -0.008774
 -0.010047
 -0.010683
  -0.00941
 -0.010047
 -0.010683
 -0.010047
 -0.010683
  -0.00941
  -0.00941
  -0.01132
  -0.01132
  -0.00941
 -0.010683
 -0.010683
 -0.010683
  -0.00941
 -0.010683
 -0.011956
 -0.010683
 -0.010047
 -0.010683
 -0.010047
 -0.010683
 -0.008774
 -0.010683
 -0.010683
 -0.011956
 -0.010047
 -0.019595
 -0.010683
 -0.030415
  0.006503
 -0.010683
  0.028781
  0.009049
  0.045967
  0.026871
  0.066335
  0.038965
  0.076519
   0.04724
  0.094978
  0.068245
  0.105799
  0.076519
  0.123621
  0.084794
  0.124894
  0.086067
  0.133169
  0.095615
   0.14399
  0.105799
  0.144626
   0.11471
  0.135079
   0.13126
  0.128714
  0.141444
  0.122985
  0.154811
  0.119802
  0.147809
  0.118529
  0.162449
  0.126804
  0.161176
  0.126167
  0.163085
  0.126167
  0.161812
  0.125531
  0.163085
  0.135079
  0.171997
  0.143353
  0.173906
  0.144626
  0.172633
   0.14399
  0.174543
  0.156084
  0.182181
  0.163722
  0.193002
  0.174543
  0.194911
  0.183454
  0.201913
  0.193638
  0.211461
  0.203822
   0.21337
  0.212097
  0.232466
  0.233739
  0.243923
  0.249651
  0.251561
  0.256653
   0.26811
  0.270656
  0.287842
  0.289115
    0.2993
  0.291025
  0.306938
  0.298663
  0.319032
  0.300573
  0.317122
  0.289752
  0.319668
    0.2993
  0.325397
  0.289752
  0.319668
  0.290388
  0.317122
  0.269383
  0.301209
  0.259836
    0.2993
  0.251561
  0.289752
  0.242013
  0.279568
  0.231829
  0.259199
   0.20064
  0.241377
  0.182817
  0.230556
   0.17136
  0.210824
  0.154174
  0.192365
  0.138261
  0.156084
  0.133806
  0.121075
  0.121712
  0.091159
  0.115983
   0.07461
  0.099434
  0.051695
  0.075246
  0.030054
  0.065062
  0.019233
  0.056151
  0.010322
  0.044694
  0.009049
  0.037692
  -0.01132
  0.018596
 -0.010047
  0.017323
 -0.021504
  0.008412
 -0.010683
  0.018596
 -0.010683
  0.007139
  -0.01132
  0.009049
 -0.001136
  0.016687
  0.009049
  0.018596
  0.018596
  0.038328
  0.037692
  0.045967
  0.045967
  0.045967
   0.04724
  0.057424
  0.056151
  0.057424
  0.056787
  0.050422
   0.04533
   0.04724
  0.048513
  0.046603
  0.046603
  0.038328
  0.037055
  0.037055
  0.037055
  0.029417
  0.036419
  0.035146
  0.035782
  0.027508
  0.027508
  0.027508
  0.035782
  0.026871
  0.027508
  0.018596
  0.017323
  0.006503
  0.017323
  0.017323
  0.017323
  0.007139
  0.017323
  0.009049
  0.009049
 -0.001772
 -0.000499
 -0.010683
 -0.001136
 -0.010683
 -0.001136
 -0.011956
 -0.010683
 -0.018322
 -0.014502
 -0.020231
 -0.028506
 -0.022141
 -0.029142
 -0.029142
 -0.038053
 -0.031688
 -0.041236
 -0.041873
 -0.049511
 -0.039327
 -0.048874
 -0.049511
 -0.059058
 -0.050147
 -0.059695
 -0.047601
 -0.059058
 -0.059695
 -0.067333
 -0.066697
 -0.076244
 -0.069879
 -0.078154
 -0.078154
 -0.087065
 -0.080063
 -0.087702
 -0.088338
 -0.097249
 -0.099159
  -0.10807
 -0.097886
 -0.107434
 -0.108707
 -0.118254
 -0.116981
 -0.118254
 -0.108707
 -0.117618
 -0.119527
 -0.127166
 -0.134167
  -0.13735
  -0.13544
 -0.136713
 -0.145625
 -0.146261
 -0.145625
 -0.146261
 -0.157082
 -0.155809
 -0.155809
 -0.156445
 -0.165993
  -0.16472
 -0.165993
  -0.17745
 -0.174904
 -0.176177
 -0.183815
 -0.186362
 -0.185725
    -0.194
 -0.194636
 -0.194636
 -0.194636
  -0.20482
 -0.204184
 -0.204184
  -0.20482
 -0.212459
 -0.211822
 -0.223916
 -0.214368
 -0.224552
 -0.223279
 -0.222643
 -0.213732
 -0.225189
 -0.223916
 -0.231554
 -0.226462
 -0.230281
 -0.230918
 -0.227099
 -0.230918
 -0.226462
   -0.2341
 -0.225189
 -0.231554
 -0.215641
 -0.225189
 -0.214368
 -0.223279
 -0.205457
 -0.215005
 -0.204184
 -0.214368
 -0.194636
  -0.20482
 -0.186362
 -0.194636
 -0.184452
 -0.193363
 -0.175541
 -0.185725
 -0.165993
 -0.175541
 -0.156445
 -0.168539
 -0.146898
 -0.154536
 -0.147534
 -0.157718
 -0.138623
 -0.147534
 -0.128439
 -0.136713
 -0.116345
 -0.127166
  -0.10807
 -0.107434
 -0.098522
 -0.100432
  -0.09343
 -0.085156
 -0.085156
 -0.081973
 -0.086429
 -0.069879
  -0.06797
 -0.060332
 -0.066697
 -0.048874
 -0.050147
 -0.041236
 -0.049511
  -0.03869
 -0.039327
 -0.031688
 -0.039327
 -0.029142
 -0.030415
 -0.021504
 -0.020231
 -0.018958
 -0.020231
  -0.01132
 -0.018958
 -0.018958
 -0.018958
 -0.010683
 -0.008774
 -0.010683
  -0.01132
 -0.010683
  -0.00941
 -0.010047
  -0.01132
  -0.01132
 -0.010683
 -0.010047
 -0.010047
 -0.010683
 -0.010683
 -0.010047
 -0.010683
 -0.010683
 -0.010683
 -0.010047
 -0.011956
 -0.010683
 -0.008774
 -0.010683
 -0.010047
 -0.010683
  -0.00941
 -0.010683
  -0.01132
  -0.00941
 -0.010047
 -0.008774
 -0.010683
 -0.010683
 -0.010047
 -0.008774
 -0.010683
 -0.010683
 -0.010683
 -0.010047
 -0.010683
 -0.010683
 -0.010683
  -0.00941
 -0.010047
 -0.011956
 -0.010047
  -0.00941
 -0.010683
 -0.011956
 -0.010047
 -0.008774
 -0.010047
  -0.01132
 -0.010683
 -0.010047
 -0.010683
  -0.01132
 -0.010683
 -0.010047
 -0.010047
  -0.01132
 -0.010683
 -0.010047
 -0.010047
  -0.01132
 -0.010047
 -0.010047
 -0.010047
 -0.010683
  -0.00941
 -0.010683
 -0.010683
 -0.010683
 -0.010047
 -0.010683
  -0.01132
 -0.010047
 -0.008774
 -0.010047
 -0.010047
 -0.010683
 -0.010047
 -0.010683
 -0.010683
 -0.008774
 -0.008774
 -0.010047
 -0.010683
 -0.010683
  -0.00941
  -0.01132
 -0.010047
 -0.008137
 -0.010683
 -0.011956
  -0.01132
 -0.008774
 -0.008774
 -0.010047
  -0.01132
 -0.010683
 -0.008774
 -0.010683
 -0.011956
 -0.010047
 -0.010047
 -0.008774
 -0.011956
 -0.010683
 -0.008774
  -0.00941
 -0.010047
 -0.011956
 -0.010683
 -0.008774
  -0.01132
 -0.013229
 -0.010047
  -0.01132
 -0.010683
  -0.01132
 -0.010683
 -0.008774
  -0.00941
 -0.010047
  -0.01132
 -0.010047
 -0.010047
 -0.010047
 -0.011956
 -0.010683
 -0.010683
  -0.00941
 -0.010047
  -0.00941
 -0.010683
 -0.010047
 -0.008774
 -0.010047
  -0.01132
  -0.00941
 -0.010047
  -0.00941
 -0.011956
 -0.010683
 -0.008774
 -0.010683
 -0.010683
  -0.01132
  -0.00941
 -0.010047
 -0.010683
 -0.010683
 -0.010047
 -0.008774
 -0.010683
 -0.011956
 -0.010683
  -0.00941
 -0.010683
  -0.01132
 -0.010683
 -0.008774
  -0.00941
 -0.010683
  -0.01132
  -0.00941
 -0.008774
 -0.010683
 -0.010683
  -0.01132
  -0.00941
 -0.010683
 -0.011956
 -0.010683
  -0.00941
 -0.010047
  -0.01132
  -0.01132
 -0.010683
 -0.010047
 -0.010047
 -0.010047
 -0.010047
 -0.010047
 -0.010683
 -0.010683
  -0.00941
  -0.00941
 -0.010683
 -0.010047
 -0.008774
  -0.01132
 -0.010683
  -0.01132
 -0.010047
 -0.008137
 -0.010683
  -0.01132
  -0.00941
 -0.010047
 -0.010683
 -0.010683
 -0.010683
 -0.010683
  -0.01132
  -0.01132
 -0.010047
 -0.010047
 -0.010047
 -0.010047
  -0.01132
 -0.010683
 -0.010683
 -0.010047
 -0.008774
 -0.010683
 -0.011956
 -0.010047
 -0.008774
 -0.010047
  -0.01132
 -0.010047
 -0.008774
 -0.010683
 -0.010683
 -0.010047
  -0.00941
 -0.010683
 -0.010683
 -0.010683
 -0.008774
 -0.010047
  -0.01132
 -0.010683
 -0.010683
 -0.010047
  -0.01132
 -0.010047
 -0.008774
  -0.00941
 -0.010683
 -0.008774
 -0.010047
 -0.010047
 -0.010047
 -0.008774
 -0.010683
 -0.010047
 -0.010683
  -0.00941
 -0.010047
  -0.01132
 -0.010683
 -0.010047
 -0.010047
 -0.010683
  -0.00941
  -0.00941
 -0.010683
  -0.01132
  -0.00941
 -0.008774
 -0.010683
  -0.01132
 -0.010683
 -0.010683
  -0.00941
 -0.010683
 -0.010683
 -0.010683
  -0.00941
 -0.010683
 -0.011956
 -0.010683
 -0.010047
  -0.01132
 -0.010683
 -0.011956
 -0.010683
 -0.008774
 -0.010683
 -0.010683
  -0.00941
  -0.00941
 -0.010047
  -0.01132
 -0.010047
 -0.010683
 -0.010047
 -0.010683
 -0.010047
 -0.010683
 -0.010683
 -0.011956
 -0.008774
 -0.010683
 -0.010683
 -0.010047
 -0.010683
 -0.010047
  -0.00941
  -0.01132
 -0.010683
  -0.00941
 -0.010047
  -0.01132
  -0.01132
 -0.008774
 -0.010047
  -0.00941
  -0.01132
  -0.01132
 -0.010683
 -0.010047
 -0.010047
 -0.010683
  -0.00941
 -0.008774
 -0.010683
 -0.010683
 -0.010683
 -0.010047
 -0.008774
 -0.010683
 -0.011956
 -0.010683
 -0.010047
 -0.008774
 -0.010683
  -0.01132
 -0.010047
  -0.00941
 -0.010683
 -0.012593
 -0.010683
  -0.00941
 -0.010047
 -0.010047
  -0.01132
  -0.00941
 -0.010047
 -0.010047
  -0.01132
 -0.010683
 -0.010683
 -0.008774
 -0.010683
 -0.010683
 -0.010047
 -0.010047
 -0.010683
  -0.01132
 -0.010683
  -0.00941
 -0.010683
 -0.010683
 -0.010047
  -0.00941
  -0.01132
 -0.011956
 -0.010683
  -0.00941
  -0.00941
 -0.010683
 -0.010683
  -0.01132
 -0.010047
  -0.01132
 -0.010047
 -0.010047
 -0.010047
 -0.010683
  -0.01132
 -0.010683
 -0.010047
 -0.008774
 -0.008774
 -0.010683
 -0.010683
 -0.010683
 -0.010047
  -0.01132
 -0.010683
 -0.008774
 -0.010047
 -0.010683
 -0.010683
 -0.010047
 -0.011956
 -0.010047
 -0.010047
 -0.010683
 -0.012593
 -0.010683
 -0.008774
 -0.010047
 -0.010683
 -0.010683
 -0.008137
 -0.010683
  -0.00941
 -0.010683
  -0.00941
 -0.008774
 -0.010047
 -0.010683
 -0.010683
 -0.008774
 -0.010683
 -0.010683
 -0.011956
  -0.00941
 -0.010047
 -0.008774
 -0.011956
  -0.01132
 -0.010683
 -0.008774
 -0.010047
 -0.010683
 -0.010683
 -0.010683
 -0.010683
  -0.00941
 -0.010047
 -0.010683
  -0.01132
 -0.010683
 -0.010047
 -0.010047
  -0.01132
 -0.010683
 -0.010047
 -0.008774
 -0.010047
 -0.010683
 -0.010683
 -0.010047
 -0.010047
 -0.010047
 -0.011956
 -0.010683
 -0.010683
 -0.010683
 -0.010683
 -0.010683
 -0.010683
  -0.00941
  -0.01132
 -0.010047
  -0.00941
 -0.010047
  -0.01132
 -0.010047
 -0.010047
 -0.010683
 -0.010683
 -0.010047
 -0.010047
 -0.008774
 -0.010047
 -0.010683
 -0.010683
 -0.010047
 -0.010683
  -0.01132
 -0.010683
 -0.010683
  -0.00941
  -0.01132
 -0.011956
 -0.010683
 -0.010047
 -0.010683
  -0.01132
 -0.010683
 -0.010683
 -0.008774
  -0.00941
  -0.01132
 -0.010047
  -0.00941
  -0.00941
  -0.01132
 -0.010683
 -0.008774
 -0.010047
 -0.010683
 -0.010047
 -0.010683
  -0.01132
 -0.010683
 -0.008774
 -0.010683
 -0.010047
 -0.008774
 -0.010047
 -0.011956
 -0.008774
 -0.010047
 -0.010047
 -0.010683
 -0.010683
 -0.010683
 -0.008774
 -0.010683
  -0.01132
  -0.01132
  -0.01132
  -0.00941
 -0.010683
 -0.011956
 -0.010683
 -0.010047
 -0.008774
 -0.010683
 -0.011956
  -0.00941
  -0.00941
 -0.010683
 -0.010683
 -0.010047
  -0.00941
 -0.010047
 -0.010683
  -0.01132
  -0.00941
  -0.00941
 -0.010047
 -0.010683
 -0.010047
 -0.010683
 -0.011956
 -0.010047
  -0.00941
 -0.010683
 -0.010047
 -0.010047
 -0.010047
 -0.010683
 -0.010683
  -0.00941
 -0.010683
 -0.011956
 -0.010683
  -0.01132
 -0.010683
 -0.010047
  -0.00941
 -0.010047
  -0.01132
 -0.010047
 -0.010047
 -0.010047
 -0.010047
 -0.010047
 -0.010047
  -0.00941
 -0.010683
 -0.008774
 -0.010683
 -0.008774
 -0.008774
 -0.010683
 -0.011956
 -0.010683
 -0.010683
 -0.010683
 -0.010683
 -0.010683
  -0.00941
 -0.010047
 -0.020231
 -0.010683
 -0.020868
 -0.010047
 -0.010047
  -0.01132
 -0.019595
 -0.010683
  -0.00941
 -0.001136
  -0.01132
  0.008412
  0.008412
  0.009049
 -0.001136
  0.008412
  0.007139
   0.01796
  0.019233
   0.01796
  0.007776
  0.017323
   0.01796
  0.019233
  0.018596
  0.018596
  0.017323
   0.01796
  0.019869
   0.01796
  0.019233
  0.019233
  0.019233
  0.017323
  0.018596
  0.027508
  0.028144
  0.027508
  0.029417
  0.027508
  0.028144
  0.027508
  0.028144
  0.027508
  0.026871
  0.029417
  0.028781
  0.026871
  0.017323
   0.01796
  0.017323
  0.027508
  0.018596
  0.018596
  0.018596
  0.016687
   0.01796
  0.028781
  0.016687
  0.017323
  0.019233
  0.019233
  0.007776
  0.007776
  0.009685
  0.018596
  0.007139
  0.009049
  0.009049
   0.00141
 -0.000499
  0.000774
  0.007139
 -0.000499
  0.000137
 -0.010047
  -0.01132
 -0.010683
 -0.000499
 -0.010683
  -0.01132
 -0.010047
  -0.00941
 -0.010683
 -0.010683
  -0.01132
 -0.010683
 -0.008774
  -0.00941
 -0.010683
 -0.010683
 -0.008774
 -0.010047
 -0.010683
  -0.01132
  -0.00941
 -0.010047
 -0.010683
 -0.010683
  -0.01132
  -0.00941
 -0.008774
 -0.010047
  -0.01132
 -0.010683
 -0.010047
 -0.010047
 -0.010683
 -0.010683
  -0.00941
 -0.010683
  -0.01132
  -0.00941
 -0.010047
 -0.010047
  -0.01132
  -0.01132
 -0.010047
 -0.010683
  -0.01132
 -0.010683
 -0.010047
  -0.00941
 -0.008774
 -0.010683
  -0.01132
 -0.010047
 -0.010047
  -0.01132
 -0.010683
 -0.008774
 -0.010047
 -0.010683
 -0.010047
 -0.008774
 -0.010683
 -0.010683
  -0.00941
  -0.00941
 -0.010047
 -0.010683
  -0.01132
 -0.008774
 -0.010683
 -0.010683
  -0.00941
 -0.010047
 -0.010047
 -0.011956
  -0.01132
 -0.010683
  -0.00941
 -0.000499
 -0.011956
 -0.005591
 -0.008137
 -0.003045
 -0.018322
 -0.003682
 -0.020231
  -0.03869
 -0.041236
  -0.06797
 -0.049511
 -0.076244
 -0.048238
 -0.144988
 -0.090248
 -0.288204
 -0.116981
 -0.202274
 -0.145625
 -0.233464
 -0.148171
 -0.223916
 -0.134804
 -0.202274
 -0.116345
 -0.203547
  -0.12462
 -0.183815
 -0.125893
 -0.224552
 -0.097249
 -0.114435
 -0.067333
 -0.098522
 -0.058422
 -0.106797
 -0.058422
 -0.058422
 -0.047601
 -0.041873
 -0.020868
  -0.00941
  0.030054
  0.033236
  0.035782
  0.028781
  0.088613
  0.052968
  0.084157
  0.049149
   0.13126
  0.078429
   0.14399
  0.079702
  0.161812
   0.08543
  0.220372
  0.096888
  0.209551
  0.115347
  0.203822
  0.105162
  0.190456
  0.114074
   0.21337
   0.11662
  0.190456
  0.094342
  0.222281
  0.124258
  0.211461
  0.066972
  0.048513
  0.046603
  0.017323
  0.008412
 -0.029142
  0.008412
 -0.059695
 -0.020868
 -0.020231
 -0.056512
 -0.076881
 -0.049511
 -0.034234
 -0.030415
 -0.029779
 -0.028506
 -0.030415
 -0.030415
 -0.029779
 -0.029142
 -0.029779
 -0.030415
 -0.030415
 -0.029142
 -0.030415
 -0.031052
 -0.030415
 -0.028506
 -0.030415
 -0.030415
 -0.029142
 -0.029142
 -0.029779
 -0.031688
 -0.029779
 -0.029779
 -0.029779
 -0.030415
 -0.030415
 -0.029142
 -0.030415
 -0.030415
 -0.029779
 -0.030415
 -0.029779
 -0.029142
 -0.031052
 -0.031052
 -0.028506
 -0.030415
 -0.031052
 -0.030415
 -0.028506
 -0.029142
 -0.028506
 -0.031052
 -0.029142
 -0.029142
 -0.029142
 -0.031052
 -0.030415
 -0.030415
 -0.029142
 -0.031052
 -0.029779
 -0.029142
 -0.031052
 -0.029779
 -0.027869
 -0.029142
 -0.029142
 -0.029142
 -0.028506
 -0.030415
 -0.030415
 -0.029779
 -0.028506
 -0.031052
 -0.030415
 -0.029779
 -0.028506
 -0.030415
 -0.031688
 -0.031688
 -0.029142
 -0.030415
 -0.029779
 -0.030415
 -0.031052
 -0.029142
 -0.029779
 -0.029779
 -0.031688
 -0.033598
 -0.032961
 -0.030415
 -0.031052
 -0.031052
 -0.029779
 -0.037417
 -0.029779
 -0.030415
 -0.031052
 -0.030415
 -0.020868
 -0.018958
 -0.019595
 -0.020231
 -0.021504
 -0.020868
 -0.019595
 -0.029779
 -0.020231
 -0.020231
 -0.020868
 -0.019595
 -0.019595
 -0.020868
 -0.020868
 -0.018322
 -0.010683
  -0.01132
 -0.010683
 -0.017048
 -0.018958
 -0.018322
 -0.018322
 -0.017685
 -0.010683
 -0.010683
 -0.010683
  -0.00941
  -0.00941
 -0.020231
 -0.013866
 -0.014502
 -0.017048
 -0.014502
 -0.018958
  -0.01132
 -0.010683
  -0.01132
 -0.018958
 -0.010683
 -0.019595
  -0.01132
 -0.020868
 -0.010683
 -0.020231
  -0.01132
 -0.020868
 -0.010683
 -0.010047
 -0.001772
 -0.010683
 -0.000499
 -0.010683
 -0.001772
 -0.010683
  0.000137
 -0.010683
 -0.001772
 -0.010047
 -0.001136
 -0.001772
  0.006503
 -0.000499
  0.007776
  0.006503
  0.009049
  0.000137
  0.009049
  0.008412
  0.009049
  0.009685
  0.018596
  0.019869
  0.019233
  0.019869
  0.010322
  0.016687
   0.01796
  0.019233
  0.017323
  0.018596
   0.01796
  0.017323
  0.035782
  0.027508
  0.028144
  0.028144
  0.028144
  0.027508
  0.029417
  0.028781
  0.027508
  0.027508
  0.037055
  0.029417
  0.027508
  0.026871
  0.027508
  0.027508
  0.056151
  0.035146
  0.036419
  0.036419
  0.035782
  0.036419
  0.047876
  0.038328
  0.036419
  0.037692
   0.04724
  0.037692
  0.045967
  0.037692
  0.039601
  0.042147
  0.040874
  0.044694
  0.040238
  0.037692
  0.037055
  0.037692
   0.03069
  0.037055
  0.026871
  0.028781
  0.029417
  0.038328
  0.028781
  0.028781
  0.029417
  0.027508
  0.018596
  0.018596
  0.019869
  0.016687
  0.018596
  0.029417
  0.018596
  0.016687
   0.01796
  0.019233
  0.017323
  0.019233
  0.009049
  0.007776
  0.009049
  0.009049
  0.008412
  0.017323
  0.008412
  0.009049
  0.007139
  0.009049
  0.009685
  0.008412
 -0.001772
 -0.001136
 -0.001136
 -0.000499
  0.006503
  0.002047
 -0.000499
 -0.001136
  0.000137
 -0.010047
 -0.010683
  -0.01132
  -0.00941
 -0.010047
 -0.011956
  -0.01132
  0.000774
 -0.010047
  -0.01132
 -0.010683
 -0.010047
 -0.010683
 -0.010683
 -0.008774
 -0.010047
 -0.010683
 -0.010047
 -0.010047
  -0.01132
 -0.010047
  -0.00941
 -0.010683
  -0.01132
 -0.008774
 -0.008774
 -0.010683
 -0.010047
 -0.008774
 -0.010683
 -0.010683
 -0.010683
 -0.010047
  -0.01132
  -0.01132
  -0.00941
 -0.010047
 -0.010683
 -0.010683
 -0.010047
  -0.01132
 -0.010683
  -0.00941
 -0.010047
 -0.010683
 -0.010683
  -0.00941
  -0.00941
 -0.011956
 -0.010683
  -0.00941
 -0.010047
 -0.011956
 -0.010047
 -0.010047
  -0.01132
  -0.01132
 -0.010047
 -0.010047
 -0.010047
 -0.011956
 -0.010047
  -0.00941
 -0.011956
 -0.010683
 -0.008774
 -0.010047
 -0.010683
 -0.010683
 -0.010047
 -0.010047
 -0.010683
 -0.010683
 -0.008137
 -0.010683
 -0.010683
 -0.010683
  -0.00941
  -0.01132
  -0.01132
  -0.00941
 -0.010047
 -0.010683
 -0.010683
 -0.010047
 -0.010047
 -0.010683
 -0.010683
 -0.008774
 -0.010683
 -0.011956
 -0.010047
  -0.00941
 -0.010683
  -0.01132
 -0.010683
  -0.00941
 -0.010683
 -0.010683
  -0.01132
  -0.00941
 -0.008774
 -0.010683
 -0.008774
  -0.00941
 -0.010683
  -0.01132
 -0.010047
 -0.010683
 -0.010683
 -0.010683
 -0.010683
 -0.010047
  -0.00941
 -0.010683
  -0.01132
 -0.010683
 -0.008774
 -0.010047
 -0.010683
  -0.00941
 -0.010047
 -0.008774
 -0.011956
  -0.00941
 -0.010047
 -0.010047
 -0.010683
  -0.01132
 -0.010683
 -0.008774
  -0.00941
 -0.010047
 -0.010683
 -0.010683
 -0.010047
 -0.010683
 -0.010683
 -0.010683
 -0.010047
 -0.010683
 -0.011956
 -0.010047
 -0.010683
 -0.010683
 -0.010683
 -0.010047
 -0.010047
 -0.010683
  -0.01132
 -0.010683
  -0.00941
 -0.010683
  -0.01132
  -0.00941
 -0.010047
 -0.010047
  -0.01132
 -0.010683
 -0.008774
 -0.010047
 -0.010683
 -0.010683
  -0.00941
 -0.010683
  -0.00941
 -0.008774
 -0.008774
  -0.01132
 -0.010047
 -0.010047
  -0.00941
 -0.010683
 -0.010683
 -0.010683
 -0.008774
 -0.010047
  -0.00941
 -0.010047
 -0.010047
 -0.010683
 -0.010683
 -0.010683
 -0.008137
  -0.01132
  -0.01132
 -0.010683
 -0.020231
  -0.01132
 -0.031052
  0.008412
 -0.010047
  0.027508
  0.007139
  0.046603
  0.028144
  0.068245
  0.037692
  0.076519
  0.056151
   0.08543
  0.086704
  0.086067
  0.110255
  0.095615
  0.118529
  0.090523
  0.128077
  0.099434
  0.142717
  0.105162
   0.14208
  0.108345
  0.151628
  0.105799
  0.152265
   0.11662
  0.152901
  0.114074
  0.161812
  0.115983
  0.154174
  0.115983
  0.162449
  0.125531
  0.164358
  0.126167
  0.162449
  0.125531
  0.163722
  0.124258
  0.162449
  0.134442
  0.174543
  0.144626
  0.171997
   0.14399
  0.175179
  0.144626
  0.172633
  0.154174
  0.179635
  0.176452
  0.182817
  0.186636
  0.187273
   0.19873
  0.193638
  0.208914
  0.204459
  0.212097
  0.211461
  0.231192
  0.231829
   0.24265
  0.250288
  0.250288
  0.251561
  0.261745
  0.271293
   0.27002
  0.290388
  0.291661
  0.299936
  0.289752
  0.308847
  0.299936
  0.318395
  0.298027
  0.318395
  0.289752
  0.319032
  0.298663
  0.327943
  0.290388
  0.320305
  0.289752
  0.319032
  0.270656
  0.301209
  0.261109
    0.2993
  0.254744
  0.275112
  0.259199
  0.250288
  0.250924
  0.217189
  0.233102
  0.189819
  0.225464
  0.177725
  0.207641
   0.15672
  0.190456
  0.136988
  0.171997
  0.115983
  0.152901
  0.097524
  0.133806
  0.075883
  0.124258
  0.068881
  0.104526
  0.045967
  0.075883
  0.027508
  0.065062
  0.018596
  0.056787
  0.008412
  0.045967
  0.008412
  0.038328
 -0.010683
  0.018596
 -0.010683
   0.01605
 -0.021504
  0.008412
 -0.010047
   0.01796
 -0.011956
  0.003957
 -0.003045
  0.003957
  0.009685
  0.010958
  0.017323
  0.019233
  0.034509
  0.038965
   0.04533
  0.046603
   0.04724
  0.048513
  0.056151
  0.055514
  0.056787
  0.056787
  0.055514
  0.047876
  0.047876
   0.04724
  0.046603
   0.04724
  0.047876
  0.037692
  0.035782
  0.037055
  0.037055
  0.026235
  0.037055
  0.037692
  0.035782
  0.026235
  0.028781
  0.026235
  0.036419
  0.025598
  0.028144
  0.019233
  0.016687
  0.009049
  0.019233
  0.017323
  0.012868
  0.015414
  0.012231
  0.007776
  0.000774
 -0.000499
 -0.010047
 -0.003682
 -0.010683
 -0.001136
 -0.010683
 -0.012593
 -0.020231
 -0.010683
 -0.021504
 -0.020868
 -0.030415
 -0.020868
 -0.030415
 -0.030415
 -0.038053
 -0.031052
 -0.042509
 -0.041236
 -0.048874
   -0.0406
 -0.049511
 -0.049511
 -0.058422
 -0.050147
 -0.059058
 -0.047601
 -0.057149
 -0.058422
  -0.06797
 -0.066697
 -0.075608
 -0.069879
   -0.0807
 -0.078154
 -0.087065
 -0.081337
 -0.089611
  -0.09343
 -0.097249
 -0.105524
 -0.101068
 -0.106161
 -0.105524
 -0.115708
 -0.118254
 -0.117618
 -0.107434
 -0.115708
 -0.118254
 -0.127802
 -0.125893
  -0.13735
 -0.137986
  -0.13735
  -0.13735
 -0.146261
 -0.147534
 -0.145625
 -0.145625
 -0.154536
 -0.157082
 -0.155809
 -0.157082
  -0.16472
 -0.165357
 -0.165993
 -0.176177
 -0.175541
 -0.176814
 -0.186362
 -0.185089
 -0.185089
 -0.194636
 -0.195273
 -0.195909
 -0.195273
 -0.204184
  -0.20482
 -0.205457
 -0.210549
 -0.213732
  -0.21946
 -0.216914
 -0.223279
 -0.225825
 -0.225189
 -0.213732
 -0.223916
 -0.223916
   -0.2341
 -0.224552
 -0.233464
 -0.225189
 -0.234737
 -0.225825
 -0.234737
 -0.223279
   -0.2341
 -0.225189
   -0.2341
 -0.215005
 -0.222643
 -0.213732
 -0.223916
 -0.205457
 -0.215641
  -0.20482
 -0.214368
 -0.195273
  -0.20673
 -0.186362
 -0.195273
 -0.183815
 -0.194636
 -0.174904
 -0.186362
 -0.165357
 -0.176177
 -0.157718
 -0.160264
 -0.150717
 -0.149444
 -0.153263
 -0.143079
 -0.145625
 -0.129075
 -0.136077
   -0.1208
 -0.125893
 -0.107434
 -0.106797
 -0.097886
 -0.107434
 -0.088975
 -0.097886
 -0.080063
 -0.087702
 -0.077517
 -0.088338
 -0.069879
  -0.06797
 -0.057785
  -0.06797
 -0.050147
  -0.05142
 -0.039963
 -0.048874
 -0.039963
   -0.0406
 -0.031052
 -0.039963
 -0.028506
 -0.031052
 -0.021504
 -0.020231
 -0.019595
 -0.020231
 -0.010683
 -0.019595
 -0.018322
 -0.015775
 -0.010683
  -0.01132
 -0.010047
  -0.00941
 -0.010047
 -0.010683
 -0.010683
 -0.010047
 -0.008774
  -0.00941
  -0.01132
 -0.010683
  -0.00941
 -0.008774
 -0.010047
 -0.010683
  -0.01132
 -0.008774
 -0.010683
  -0.01132
 -0.010047
 -0.010047
 -0.010047
 -0.010047
 -0.011956
 -0.010047
 -0.010047
 -0.010683
 -0.010047
  -0.01132
  -0.01132
 -0.010683
 -0.010047
  -0.01132
 -0.010047
 -0.008774
 -0.010683
 -0.011956
  -0.01132
 -0.010047
 -0.010047
 -0.010683
  -0.00941
 -0.008774
 -0.010047
 -0.011956
 -0.010683
 -0.010047
 -0.010047
 -0.010047
 -0.010683
  -0.00941
 -0.010683
 -0.010683
 -0.010683
 -0.010683
 -0.010047
 -0.010047
 -0.011956
  -0.00941
  -0.00941
 -0.010047
 -0.011956
  -0.00941
  -0.00941
 -0.010047
  -0.01132
 -0.010683
 -0.010683
 -0.010683
  -0.01132
 -0.010683
 -0.010047
  -0.01132
 -0.010683
 -0.010047
 -0.010047
 -0.011956
 -0.010047
 -0.010047
 -0.010683
 -0.008774
 -0.010047
 -0.010683
  -0.01132
 -0.010047
  -0.00941
 -0.010683
 -0.010047
 -0.010047
 -0.010047
 -0.010047
 -0.010683
 -0.008774
 -0.010047
 -0.010683
 -0.010683
  -0.00941
  -0.01132
 -0.010683
 -0.010047
 -0.010047
  -0.01132
  -0.00941
  -0.00941
 -0.010047
  -0.01132
  -0.01132
 -0.008774
 -0.010683
 -0.010683
 -0.010683
  -0.00941
  -0.00941
 -0.010683
 -0.010047
 -0.010047
 -0.010683
 -0.010047
 -0.010047
 -0.010047
  -0.01132
  -0.01132
 -0.010047
 -0.010683
 -0.010683
 -0.010047
 -0.010683
  -0.01132
 -0.010683
 -0.010047
 -0.010683
 -0.010683
 -0.010683
 -0.010683
 -0.010047
  -0.01132
 -0.010683
 -0.010683
 -0.010047
 -0.010683
  -0.00941
 -0.008137
 -0.010047
 -0.010047
 -0.010047
 -0.010047
 -0.010683
  -0.01132
 -0.008774
 -0.010047
 -0.010683
 -0.010683
 -0.008774
 -0.010047
 -0.010047
 -0.010683
 -0.008774
  -0.01132
 -0.010683
 -0.010047
 -0.008774
 -0.010047
 -0.010683
 -0.008774
  -0.00941
 -0.010047
  -0.00941
 -0.010047
 -0.010683
 -0.010683
 -0.010047
 -0.010047
 -0.010683
  -0.01132
  -0.00941
 -0.008774
 -0.010047
 -0.010683
 -0.010683
  -0.00941
 -0.010047
  -0.01132
 -0.010047
 -0.010047
 -0.010047
  -0.01132
  -0.01132
  -0.00941
  -0.01132
 -0.010683
 -0.008774
 -0.010683
 -0.010683
 -0.010047
 -0.010047
 -0.010047
  -0.01132
  -0.00941
  -0.00941
 -0.010683
 -0.010683
  -0.00941
 -0.010683
 -0.010047
  -0.01132
  -0.01132
  -0.00941
 -0.010683
  -0.01132
  -0.00941
 -0.010047
 -0.010683
  -0.01132
 -0.010047
 -0.010047
  -0.01132
 -0.010047
  -0.00941
 -0.010683
  -0.00941
 -0.010683
 -0.008774
 -0.010683
 -0.010047
 -0.010047
 -0.010047
 -0.010683
 -0.011956
  -0.01132
 -0.010047
 -0.010683
 -0.010683
 -0.010683
 -0.010683
 -0.010683
  -0.01132
  -0.00941
 -0.010683
 -0.010047
  -0.01132
 -0.010047
 -0.008774
 -0.010047
  -0.01132
 -0.010683
  -0.00941
 -0.010047
  -0.01132
 -0.010047
 -0.010683
  -0.01132
 -0.010683
 -0.008774
 -0.008774
  -0.01132
  -0.00941
 -0.010683
  -0.01132
 -0.008774
 -0.010683
 -0.010047
 -0.010047
 -0.010047
  -0.00941
 -0.008774
  -0.01132
 -0.010683
 -0.010683
 -0.010047
 -0.010683
 -0.010047
 -0.010047
 -0.010683
 -0.010047
  -0.00941
 -0.010047
 -0.010683
 -0.010683
 -0.008774
 -0.010047
 -0.010047
 -0.010683
  -0.00941
 -0.010047
  -0.01132
 -0.010047
 -0.008774
 -0.010683
 -0.010683
 -0.008774
 -0.010683
 -0.010683
  -0.00941
 -0.010683
 -0.010683
 -0.010683
 -0.010047
 -0.010683
 -0.010683
 -0.010047
 -0.010047
 -0.011956
 -0.008137
 -0.010683
 -0.010047
 -0.010047
 -0.010047
  -0.01132
 -0.010047
 -0.008774
 -0.010683
  -0.01132
 -0.010683
 -0.010047
 -0.010683
  -0.01132
 -0.010683
 -0.010047
 -0.010683
  -0.01132
 -0.010683
 -0.008774
 -0.010047
 -0.010683
 -0.010683
 -0.008774
 -0.010047
  -0.01132
 -0.010683
  -0.00941
 -0.010683
 -0.010047
  -0.00941
 -0.010047
 -0.010683
 -0.010683
 -0.008137
 -0.010683
  -0.01132
  -0.01132
 -0.010683
 -0.010683
 -0.010683
 -0.008774
 -0.010683
 -0.010047
  -0.01132
  -0.01132
 -0.010683
 -0.010683
 -0.010047
 -0.008774
 -0.010683
 -0.010683
 -0.010683
 -0.010047
 -0.010047
 -0.011956
 -0.010047
 -0.010047
 -0.011956
 -0.010047
 -0.010683
 -0.010683
  -0.01132
 -0.011956
 -0.010047
 -0.010047
  -0.01132
  -0.01132
 -0.008137
 -0.010683
 -0.010047
  -0.00941
 -0.010047
 -0.010683
 -0.010047
 -0.010683
 -0.010683
 -0.010683
 -0.010047
 -0.010683
 -0.010683
 -0.010683
 -0.010683
 -0.011956
 -0.010683
  -0.00941
  -0.01132
 -0.010683
 -0.010683
 -0.010047
  -0.00941
  -0.01132
 -0.010683
  -0.00941
 -0.010683
  -0.00941
  -0.00941
 -0.010683
  -0.01132
 -0.010683
 -0.010047
 -0.010683
 -0.010683
 -0.010683
  -0.00941
 -0.010047
 -0.010683
  -0.00941
 -0.010047
 -0.010683
  -0.01132
 -0.010047
 -0.010047
 -0.010683
 -0.010683
 -0.010047
 -0.010683
  -0.01132
 -0.010047
 -0.010683
 -0.010047
 -0.010683
  -0.01132
 -0.008774
 -0.010683
 -0.010683
 -0.010683
 -0.008774
 -0.010683
 -0.010047
 -0.010683
  -0.00941
 -0.010047
 -0.010047
  -0.00941
  -0.01132
  -0.01132
 -0.010683
  -0.00941
 -0.010047
 -0.010683
 -0.010683
  -0.00941
 -0.010683
  -0.01132
 -0.010683
 -0.010047
  -0.01132
 -0.010683
  -0.00941
 -0.010683
 -0.010683
 -0.010047
 -0.008774
 -0.012593
 -0.010683
 -0.010047
 -0.010683
 -0.011956
 -0.010683
 -0.008774
 -0.011956
  -0.01132
  -0.00941
 -0.008774
 -0.010683
  -0.01132
  -0.01132
 -0.008137
 -0.010683
  -0.01132
 -0.010047
  -0.00941
 -0.010047
 -0.010683
 -0.010683
 -0.008774
 -0.010683
 -0.010683
 -0.010683
 -0.010047
  -0.01132
 -0.008774
 -0.008774
 -0.010683
  -0.01132
 -0.010047
 -0.010047
 -0.011956
 -0.010047
 -0.008137
 -0.010683
 -0.010683
 -0.010683
 -0.010683
 -0.010047
 -0.010047
 -0.008137
 -0.010683
 -0.011956
 -0.010683
 -0.008774
 -0.010683
 -0.010047
 -0.010683
 -0.010683
 -0.010683
 -0.010047
 -0.008774
  -0.01132
 -0.010047
 -0.008774
 -0.010683
  -0.01132
 -0.010047
  -0.00941
 -0.013229
  -0.01132
 -0.010047
 -0.010683
 -0.010683
 -0.010683
 -0.010683
 -0.011956
 -0.010683
 -0.008774
 -0.010683
 -0.011956
 -0.010683
 -0.007501
 -0.010047
 -0.010683
 -0.010683
 -0.008774
 -0.010047
  -0.01132
 -0.010683
  -0.00941
 -0.011956
 -0.010683
 -0.010047
 -0.010683
  -0.01132
 -0.010047
  -0.00941
  -0.01132
 -0.010683
 -0.010683
 -0.008774
 -0.010683
 -0.010683
 -0.008774
  -0.00941
 -0.010683
 -0.010683
 -0.010683
 -0.010683
 -0.010683
 -0.010047
  -0.00941
 -0.010047
  -0.01132
 -0.010683
 -0.010683
  -0.01132
 -0.010683
  -0.00941
  -0.00941
 -0.010047
  -0.00941
 -0.020868
  -0.01132
 -0.020868
  -0.00941
 -0.010047
 -0.010683
 -0.020868
 -0.010047
 -0.011956
 -0.003045
 -0.007501
  0.009049
  0.009049
  0.002683
  0.005866
  0.008412
  0.015414
  0.017323
  0.019233
  0.009049
   0.01605
  0.018596
  0.018596
  0.017323
   0.01796
  0.019869
  0.017323
  0.017323
  0.018596
  0.019233
   0.01605
  0.017323
  0.018596
  0.019233
  0.016687
  0.027508
  0.028781
  0.028144
  0.026235
  0.029417
  0.028781
  0.026871
  0.030054
  0.027508
  0.026235
  0.027508
  0.028781
  0.028781
  0.016687
   0.01796
   0.01796
  0.027508
  0.018596
  0.019233
  0.018596
  0.017323
  0.024962
  0.021779
  0.019233
   0.01796
  0.018596
  0.010322
  0.008412
  0.009049
  0.019233
  0.010322
  0.008412
  0.008412
  0.009049
 -0.000499
 -0.001136
 -0.001136
  0.009049
  0.000137
 -0.001136
 -0.012593
 -0.008774
 -0.010683
   0.00141
 -0.010683
 -0.010683
  -0.00941
 -0.008774
 -0.010683
 -0.010047
 -0.010047
  -0.00941
 -0.010683
  -0.01132
  -0.01132
 -0.008774
 -0.008774
 -0.010683
  -0.01132
 -0.010683
 -0.010683
 -0.010047
 -0.010683
  -0.01132
  -0.01132
 -0.010047
 -0.010047
  -0.01132
 -0.008774
 -0.011956
 -0.010683
 -0.008774
 -0.010047
 -0.010683
 -0.012593
 -0.010047
  -0.00941
 -0.010683
 -0.010683
 -0.010683
 -0.010683
 -0.008774
 -0.008774
 -0.010047
  -0.00941
 -0.008137
 -0.010683
  -0.01132
 -0.010683
 -0.010047
 -0.010683
  -0.01132
 -0.010047
 -0.008137
 -0.010047
 -0.010683
 -0.010047
 -0.010047
 -0.010047
 -0.010683
 -0.010683
  -0.00941
 -0.010683
 -0.010683
 -0.010047
 -0.010047
 -0.011956
 -0.010683
  -0.00941
 -0.010047
  -0.01132
 -0.010683
 -0.010047
 -0.011956
 -0.010683
  -0.00941
 -0.010683
   0.00523
 -0.018958
  0.000137
 -0.010683
 -0.001772
 -0.020231
 -0.001772
 -0.020868
 -0.039963
 -0.039963
 -0.069243
 -0.050147
 -0.077517
 -0.048238
 -0.146261
 -0.090248
 -0.290114
 -0.116345
  -0.20482
 -0.145625
 -0.230918
 -0.146261
 -0.224552
  -0.13544
 -0.201638
 -0.128439
 -0.178087
 -0.154536
 -0.147534
    -0.194
 -0.128439
 -0.113799
 -0.074971
  -0.09534
 -0.062241
 -0.102342
 -0.060332
 -0.057785
 -0.049511
 -0.047601
 -0.030415
 -0.010047
 -0.010047
  0.047876
  0.029417
  0.035782
 -0.007792
 -0.000152
  0.002395
  0.017675
  0.012581
  0.010035
  0.007488
  0.022768
  0.017675
  0.022768
  0.027862
  0.030408
  0.025315
  0.035502
  0.038048
  0.038048
  0.040595
  0.048235
  0.040595
  0.040595
  0.055875
  0.050782
  0.045688
  0.053329
  0.055875
  0.050782
  0.038048
  0.053329
  0.058422
  0.050782
  0.050782
  0.053329
  0.058422
  0.050782
  0.048235
  0.058422
  0.048235
  0.038048
  0.040595
  0.053329
  0.038048
  0.035502
  0.038048
  0.048235
  0.043142
  0.035502
  0.038048
  0.045688
  0.045688
  0.043142
  0.048235
  0.040595
  0.027862
  0.030408
  0.038048
  0.030408
  0.027862
  0.025315
  0.022768
  0.017675
  0.020221
  0.025315
  0.022768
  0.017675
  0.022768
  0.017675
  0.010035
  0.010035
  0.015128
  0.017675
  0.007488
  0.007488
  0.012581
  0.007488
  0.002395
 -0.005246
  0.007488
 -0.000152
 -0.000152
 -0.007792
 -0.002699
 -0.005246
 -0.012886
 -0.010339
 -0.002699
  0.002395
 -0.007792
 -0.012886
 -0.010339
 -0.005246
 -0.012886
 -0.012886
 -0.010339
 -0.002699
 -0.010339
 -0.010339
 -0.010339
 -0.002699
 -0.007792
 -0.012886
 -0.007792
 -0.005246
 -0.005246
 -0.010339
 -0.007792
 -0.002699
 -0.000152
 -0.007792
 -0.012886
 -0.007792
 -0.002699
 -0.005246
 -0.012886
 -0.007792
 -0.005246
 -0.007792
 -0.015432
 -0.007792
 -0.000152
 -0.010339
 -0.012886
 -0.005246
 -0.002699
 -0.005246
 -0.015432
 -0.012886
 -0.002699
 -0.010339
 -0.012886
 -0.010339
 -0.002699
 -0.010339
 -0.017979
 -0.005246
 -0.002699
 -0.007792
 -0.015432
 -0.010339
 -0.002699
 -0.010339
 -0.010339
 -0.007792
 -0.002699
 -0.007792
 -0.012886
 -0.005246
 -0.000152
 -0.005246
 -0.012886
 -0.010339
 -0.002699
 -0.007792
 -0.012886
 -0.025619
 -0.015432
 -0.043446
 -0.053633
 -0.051086
 -0.051086
  -0.07146
   -0.0791
 -0.053633
 -0.048539
 -0.023072
 -0.023072
  0.010035
  0.002395
  0.099169
  0.099169
  0.302905
  0.297811
  0.384399
  0.389493
  0.478627
   0.47608
  0.544841
  0.552481
  0.621242
  0.628882
   0.70019
   0.73075
   0.76895
  0.830071
  0.855538
  0.875912
  0.881005
  0.903925
  0.903925
  0.954859
  0.959953
  0.957406
  0.952313
  0.954859
  0.965046
  0.939579
  0.937032
  0.875912
  0.878458
  0.875912
  0.870818
  0.804604
  0.799511
   0.76131
  0.771497
  0.679816
  0.674723
  0.611055
  0.613602
  0.524467
  0.519374
  0.389493
  0.392039
  0.269798
  0.267251
   0.18321
   0.19085
  0.099169
  0.099169
  0.002395
  0.007488
  -0.07146
  -0.12494
 -0.196248
 -0.244635
 -0.282836
 -0.277742
 -0.270102
 -0.236995
 -0.239542
 -0.208981
 -0.201341
  -0.13258
  -0.13258
 -0.135127
 -0.130034
 -0.045993
 -0.040899
 -0.043446
 -0.048539
 -0.043446
 -0.045993
 -0.048539
 -0.045993
 -0.038353
 -0.043446
 -0.051086
 -0.043446
 -0.043446
 -0.051086
 -0.043446
 -0.038353
 -0.045993
 -0.048539
 -0.048539
 -0.043446
 -0.040899
 -0.056179
 -0.045993
 -0.038353
 -0.043446
 -0.048539
 -0.038353
 -0.043446
 -0.048539
 -0.043446
 -0.038353
 -0.043446
 -0.051086
 -0.045993
 -0.035806
 -0.045993
 -0.048539
 -0.045993
 -0.038353
 -0.045993
 -0.048539
 -0.043446
 -0.040899
 -0.045993
 -0.048539
 -0.043446
 -0.038353
 -0.043446
 -0.051086
 -0.045993
 -0.038353
 -0.040899
 -0.048539
 -0.040899
 -0.038353
 -0.043446
 -0.053633
 -0.045993
 -0.038353
 -0.040899
 -0.045993
 -0.043446
 -0.040899
 -0.043446
 -0.048539
 -0.048539
 -0.045993
 -0.040899
 -0.043446
 -0.051086
 -0.043446
 -0.038353
 -0.045993
 -0.051086
 -0.048539
 -0.035806
 -0.043446
 -0.053633
 -0.043446
 -0.043446
 -0.045993
 -0.048539
 -0.043446
 -0.038353
 -0.033259
 -0.038353
 -0.035806
 -0.028166
 -0.035806
 -0.040899
 -0.020526
 -0.025619
 -0.023072
 -0.028166
 -0.028166
 -0.020526
 -0.028166
 -0.033259
 -0.017979
 -0.025619
 -0.030712
 -0.028166
 -0.010339
 -0.023072
 -0.012886
 -0.012886
 -0.015432
 -0.017979
 -0.015432
 -0.015432
 -0.023072
 -0.015432
 -0.012886
 -0.012886
 -0.007792
 -0.002699
 -0.007792
 -0.012886
 -0.010339
 -0.010339
 -0.010339
 -0.012886
 -0.000152
 -0.000152
  0.002395
  0.017675
  0.012581
  0.017675
  0.025315
  0.038048
  0.027862
  0.030408
  0.025315
  0.040595
  0.048235
  0.050782
  0.048235
  0.063515
  0.066062
  0.071155
  0.063515
  0.076249
  0.086436
  0.081342
  0.076249
  0.088982
  0.096622
  0.101716
  0.101716
  0.114449
  0.106809
  0.116996
  0.116996
  0.132276
  0.129729
  0.127183
  0.139916
   0.13737
  0.132276
   0.13737
  0.150103
  0.147556
  0.147556
  0.150103
  0.155196
  0.150103
  0.142463
  0.147556
   0.15265
  0.142463
  0.157743
  0.165383
  0.157743
   0.15265
  0.155196
  0.162836
  0.157743
  0.157743
  0.147556
  0.134823
   0.13737
   0.13737
   0.14501
  0.132276
  0.139916
   0.14501
  0.139916
  0.134823
  0.129729
  0.132276
  0.129729
  0.129729
   0.13737
  0.129729
  0.096622
  0.099169
  0.104262
  0.096622
  0.101716
  0.096622
  0.091529
  0.076249
  0.088982
  0.086436
  0.081342
  0.068609
  0.073702
  0.068609
  0.063515
  0.058422
  0.063515
  0.053329
  0.045688
  0.048235
  0.058422
  0.053329
  0.050782
  0.043142
  0.043142
  0.043142
  0.048235
  0.043142
  0.027862
  0.027862
  0.030408
  0.035502
  0.025315
  0.027862
  0.038048
  0.035502
  0.025315
  0.022768
  0.027862
  0.025315
  0.017675
  0.017675
  0.027862
  0.022768
  0.017675
  0.022768
  0.025315
  0.025315
  0.007488
  0.012581
  0.017675
  0.012581
  0.007488
  0.010035
  0.020221
  0.010035
  0.007488
  0.012581
  0.012581
  0.012581
 -0.002699
  0.004941
  0.007488
  0.002395
 -0.002699
  0.004941
  0.007488
  0.004941
 -0.002699
  0.002395
  0.007488
  0.002395
 -0.012886
 -0.002699
 -0.000152
 -0.010339
 -0.010339
 -0.000152
 -0.002699
 -0.012886
 -0.012886
 -0.002699
 -0.007792
 -0.012886
 -0.005246
 -0.002699
 -0.010339
 -0.012886
 -0.010339
 -0.002699
 -0.002699
 -0.012886
 -0.007792
 -0.000152
 -0.005246
 -0.012886
 -0.007792
 -0.000152
 -0.005246
 -0.012886
 -0.007792
 -0.005246
 -0.002699
 -0.005246
 -0.015432
 -0.007792
 -0.005246
 -0.007792
 -0.010339
 -0.005246
 -0.005246
 -0.002699
 -0.007792
 -0.012886
 -0.007792
 -0.002699
  0.002395
 -0.010339
 -0.012886
 -0.012886
 -0.000152
 -0.007792
 -0.012886
 -0.007792
  0.002395
  0.002395
 -0.005246
 -0.010339
 -0.005246
 -0.002699
 -0.002699
 -0.012886
 -0.007792
 -0.002699
 -0.010339
 -0.012886
 -0.010339
 -0.005246
 -0.010339
 -0.012886
 -0.010339
 -0.002699
 -0.007792
 -0.012886
 -0.007792
 -0.000152
 -0.005246
 -0.010339
 -0.005246
 -0.002699
 -0.005246
 -0.010339
 -0.010339
 -0.002699
 -0.005246
 -0.012886
 -0.007792
 -0.005246
 -0.010339
 -0.012886
 -0.005246
 -0.002699
 -0.005246
 -0.012886
 -0.007792
 -0.000152
 -0.007792
 -0.012886
 -0.012886
 -0.000152
 -0.012886
 -0.012886
 -0.010339
 -0.007792
 -0.007792
 -0.015432
 -0.010339
 -0.000152
 -0.005246
 -0.012886
 -0.012886
 -0.007792
  0.002395
 -0.005246
 -0.010339
 -0.012886
 -0.000152
 -0.005246
 -0.012886
 -0.007792
 -0.002699
 -0.005246
 -0.012886
 -0.007792
 -0.002699
 -0.010339
 -0.015432
 -0.010339
 -0.005246
 -0.007792
 -0.012886
 -0.007792
 -0.002699
 -0.007792
 -0.012886
 -0.007792
 -0.002699
 -0.020526
 -0.007792
 -0.000152
 -0.007792
 -0.012886
 -0.005246
  0.002395
 -0.007792
 -0.010339
 -0.005246
 -0.000152
 -0.005246
 -0.015432
 -0.007792
 -0.002699
 -0.005246
 -0.015432
 -0.007792
 -0.005246
 -0.005246
 -0.012886
 -0.007792
 -0.002699
 -0.010339
 -0.012886
 -0.010339
 -0.010339
 -0.012886
 -0.005246
 -0.005246
 -0.005246
 -0.012886
 -0.007792
 -0.010339
 -0.002699
 -0.005246
 -0.012886
 -0.007792
 -0.002699
 -0.002699
 -0.007792
 -0.012886
 -0.005246
 -0.005246
 -0.000152
  0.004941
  0.007488
  0.020221
  0.040595
  0.043142
  0.058422
  0.055875
  0.081342
  0.086436
  0.109356
  0.104262
  0.139916
   0.14501
  0.173023
  0.165383
   0.19085
  0.193397
  0.239237
  0.236691
  0.272344
  0.267251
  0.310545
  0.313092
  0.353839
  0.351292
  0.384399
  0.384399
  0.442973
  0.435333
   0.47608
  0.470987
  0.514281
  0.514281
  0.567761
  0.565215
  0.598322
  0.600868
  0.639069
  0.644162
  0.679816
  0.679816
  0.718016
   0.73839
   0.76131
  0.776591
  0.776591
  0.807151
  0.819884
  0.845351
  0.840258
  0.860632
  0.868272
  0.893739
  0.893739
  0.909019
  0.898832
  0.924299
  0.931939
  0.939579
  0.931939
  0.942126
  0.944673
  0.957406
  0.959953
  0.949766
  0.954859
  0.957406
  0.962499
  0.949766
  0.942126
  0.947219
  0.952313
  0.944673
  0.937032
  0.914112
  0.919206
  0.911565
  0.909019
  0.886098
  0.888645
  0.878458
  0.868272
  0.845351
  0.837711
  0.819884
  0.807151
  0.794417
  0.763857
  0.766404
  0.740937
   0.73839
  0.705283
  0.705283
  0.674723
  0.667083
  0.626335
  0.628882
  0.590682
  0.595775
  0.560121
  0.560121
  0.524467
  0.527014
  0.478627
  0.470987
  0.435333
  0.435333
  0.397133
  0.394586
  0.351292
  0.358932
  0.325825
  0.320732
  0.274891
  0.282531
  0.236691
  0.231597
   0.19085
  0.195944
  0.173023
  0.170477
  0.127183
  0.129729
  0.094076
  0.076249
  0.043142
  0.030408
  0.027862
 -0.005246
 -0.012886
 -0.033259
 -0.028166
 -0.061273
 -0.068913
  -0.09438
 -0.084193
  -0.10202
 -0.114753
  -0.13258
 -0.127487
 -0.152954
 -0.155501
 -0.165687
 -0.160594
 -0.175874
 -0.175874
 -0.191154
 -0.186061
 -0.188608
 -0.193701
 -0.198794
 -0.193701
 -0.198794
 -0.203888
 -0.201341
 -0.198794
 -0.198794
 -0.206435
 -0.198794
 -0.198794
 -0.198794
 -0.206435
 -0.201341
 -0.196248
 -0.198794
 -0.203888
 -0.206435
 -0.208981
 -0.201341
 -0.208981
 -0.214075
 -0.216621
 -0.214075
 -0.216621
 -0.221715
 -0.221715
 -0.211528
 -0.226808
 -0.231902
 -0.221715
 -0.226808
 -0.244635
 -0.239542
 -0.234448
 -0.247182
 -0.236995
 -0.234448
 -0.247182
 -0.244635
 -0.252275
 -0.257369
 -0.257369
 -0.257369
 -0.259915
 -0.265009
 -0.270102
 -0.259915
 -0.275195
 -0.277742
 -0.272649
 -0.272649
 -0.290476
 -0.287929
 -0.280289
 -0.285382
 -0.290476
 -0.300662
 -0.300662
 -0.298116
 -0.298116
 -0.310849
 -0.318489
 -0.321036
 -0.315943
 -0.313396
 -0.315943
 -0.331223
 -0.326129
 -0.321036
 -0.321036
 -0.338863
 -0.336316
 -0.328676
 -0.336316
 -0.336316
 -0.331223
 -0.338863
  -0.34141
 -0.354143
 -0.343956
 -0.338863
 -0.343956
 -0.359236
  -0.35669
  -0.35669
 -0.343956
 -0.359236
 -0.354143
  -0.34905
  -0.35669
 -0.359236
 -0.354143
  -0.34905
 -0.343956
 -0.359236
  -0.35669
  -0.34905
 -0.351596
 -0.359236
 -0.354143
 -0.346503
  -0.34905
  -0.34905
  -0.34141
 -0.338863
 -0.343956
  -0.34141
 -0.331223
 -0.333769
 -0.338863
 -0.333769
 -0.318489
 -0.326129
 -0.331223
 -0.326129
 -0.315943
 -0.318489
 -0.305756
 -0.298116
 -0.298116
 -0.300662
 -0.298116
 -0.287929
 -0.285382
 -0.287929
 -0.275195
 -0.280289
 -0.270102
 -0.267555
 -0.252275
 -0.257369
 -0.249728
 -0.247182
 -0.234448
 -0.236995
 -0.234448
 -0.226808
 -0.219168
 -0.221715
 -0.208981
 -0.203888
 -0.193701
 -0.201341
 -0.188608
 -0.175874
 -0.175874
 -0.178421
 -0.168234
 -0.155501
 -0.158047
 -0.155501
 -0.152954
 -0.137674
 -0.137674
 -0.137674
 -0.130034
 -0.119847
 -0.122394
   -0.1173
  -0.10966
 -0.099473
  -0.10966
  -0.09438
 -0.089287
 -0.081646
 -0.089287
 -0.084193
   -0.0791
 -0.074006
 -0.076553
 -0.058726
 -0.056179
 -0.053633
 -0.061273
 -0.043446
 -0.035806
 -0.043446
 -0.048539
 -0.035806
 -0.035806
 -0.030712
 -0.033259
 -0.025619
 -0.025619
 -0.020526
 -0.023072
 -0.023072
 -0.012886
 -0.012886
 -0.012886
 -0.023072
 -0.015432
 -0.012886
 -0.007792
 -0.015432
 -0.007792
 -0.000152
 -0.010339
 -0.012886
 -0.007792
 -0.005246
 -0.005246
 -0.007792
 -0.012886
 -0.012886
 -0.005246
 -0.002699
 -0.010339
 -0.012886
 -0.007792
 -0.000152
 -0.005246
 -0.012886
 -0.007792
 -0.002699
 -0.007792
 -0.010339
 -0.012886
 -0.007792
 -0.002699
 -0.005246
 -0.012886
 -0.012886
 -0.002699
 -0.010339
 -0.012886
 -0.012886
 -0.005246
 -0.005246
 -0.012886
 -0.010339
 -0.005246
 -0.002699
 -0.007792
 -0.012886
 -0.010339
 -0.010339
 -0.005246
 -0.005246
 -0.007792
 -0.012886
 -0.010339
 -0.002699
 -0.007792
 -0.012886
 -0.012886
 -0.012886
 -0.005246
 -0.010339
 -0.012886
 -0.015432
 -0.010339
 -0.007792
 -0.007792
 -0.010339
 -0.012886
 -0.007792
 -0.002699
 -0.007792
 -0.012886
 -0.007792
 -0.002699
 -0.010339
 -0.012886
 -0.007792
 -0.005246
 -0.007792
 -0.010339
 -0.015432
 -0.005246
 -0.002699
 -0.007792
 -0.012886
 -0.010339
 -0.002699
 -0.005246
 -0.015432
 -0.012886
 -0.007792
 -0.000152
 -0.007792
 -0.012886
 -0.002699
 -0.002699
 -0.005246
 -0.017979
 -0.002699
 -0.002699
 -0.007792
 -0.007792
 -0.015432
 -0.007792
 -0.002699
 -0.010339
 -0.012886
 -0.007792
 -0.002699
 -0.007792
 -0.012886
 -0.007792
 -0.005246
 -0.010339
 -0.012886
 -0.007792
 -0.002699
 -0.012886
 -0.005246
 -0.005246
 -0.007792
 -0.012886
 -0.005246
 -0.000152
 -0.010339
 -0.010339
 -0.005246
 -0.002699
 -0.010339
 -0.005246
 -0.012886
 -0.007792
 -0.000152
 -0.005246
 -0.010339
 -0.007792
 -0.005246
 -0.010339
 -0.015432
 -0.007792
 -0.002699
 -0.007792
 -0.012886
 -0.005246
 -0.002699
 -0.002699
 -0.007792
 -0.007792
 -0.010339
 -0.002699
 -0.007792
 -0.012886
 -0.007792
 -0.005246
 -0.005246
 -0.007792
 -0.002699
 -0.007792
 -0.015432
 -0.010339
 -0.007792
 -0.002699
 -0.007792
 -0.012886
 -0.007792
 -0.000152
 -0.000152
 -0.005246
 -0.010339
 -0.002699
 -0.000152
 -0.005246
 -0.005246
 -0.012886
 -0.005246
 -0.005246
 -0.002699
 -0.007792
 -0.012886
 -0.007792
 -0.005246
 -0.015432
 -0.010339
 -0.007792
 -0.002699
 -0.007792
 -0.010339
 -0.007792
 -0.000152
 -0.005246
 -0.010339
 -0.012886
 -0.007792
 -0.002699
 -0.005246
 -0.010339
 -0.007792
 -0.010339
 -0.005246
 -0.005246
 -0.012886
 -0.007792
 -0.007792
 -0.002699
 -0.005246
 -0.020526
 -0.005246
 -0.002699
 -0.010339
 -0.012886
 -0.010339
 -0.002699
 -0.007792
 -0.007792
 -0.015432
 -0.007792
 -0.002699
 -0.010339
 -0.012886
 -0.010339
 -0.002699
 -0.010339
 -0.012886
 -0.007792
 -0.005246
 -0.010339
 -0.012886
 -0.010339
 -0.002699
 -0.005246
 -0.012886
 -0.010339
 -0.000152
 -0.010339
 -0.010339
 -0.010339
 -0.002699
 -0.007792
 -0.007792
 -0.005246
 -0.007792
 -0.012886
 -0.005246
 -0.002699
 -0.007792
 -0.012886
 -0.005246
 -0.005246
 -0.005246
 -0.012886
 -0.007792
 -0.002699
 -0.002699
 -0.012886
 -0.000152
 -0.005246
 -0.012886
 -0.007792
 -0.007792
 -0.007792
 -0.012886
 -0.010339
 -0.005246
 -0.010339
 -0.012886
 -0.010339
 -0.005246
 -0.012886
 -0.010339
 -0.007792
 -0.002699
 -0.007792
 -0.012886
 -0.005246
 -0.002699
 -0.005246
 -0.012886
 -0.007792
 -0.010339
 -0.005246
 -0.012886
 -0.005246
 -0.002699
 -0.007792
 -0.012886
 -0.007792
 -0.007792
 -0.010339
 -0.005246
  0.004941
 -0.005246
 -0.012886
 -0.007792
 -0.002699
 -0.007792
 -0.010339
 -0.007792
 -0.002699
 -0.010339
 -0.012886
 -0.007792
 -0.000152
 -0.005246
 -0.012886
 -0.012886
 -0.005246
 -0.005246
 -0.005246
 -0.015432
 -0.005246
 -0.002699
 -0.007792
 -0.012886
 -0.005246
 -0.005246
 -0.007792
 -0.012886
 -0.012886
 -0.007792
 -0.005246
 -0.005246
 -0.012886
 -0.010339
 -0.002699
 -0.005246
 -0.012886
 -0.007792
 -0.010339
  0.002395
 -0.007792
 -0.012886
 -0.012886
 -0.007792
 -0.002699
 -0.007792
 -0.015432
 -0.012886
  0.002395
 -0.007792
 -0.010339
 -0.012886
 -0.010339
 -0.002699
 -0.007792
 -0.012886
 -0.012886
 -0.007792
 -0.000152
 -0.010339
 -0.007792
 -0.012886
 -0.007792
 -0.002699
 -0.012886
 -0.007792
 -0.012886
 -0.007792
 -0.002699
 -0.005246
 -0.012886
 -0.007792
 -0.002699
 -0.002699
 -0.010339
 -0.012886
 -0.007792
 -0.002699
 -0.010339
 -0.010339
 -0.005246
 -0.005246
 -0.007792
 -0.012886
 -0.010339
 -0.000152
 -0.010339
 -0.012886
 -0.010339
  0.002395
 -0.005246
 -0.012886
 -0.005246
 -0.002699
 -0.007792
 -0.010339
 -0.010339
 -0.000152
 -0.005246
 -0.015432
 -0.007792
 -0.005246
 -0.005246
 -0.012886
 -0.005246
 -0.007792
 -0.000152
 -0.010339
 -0.012886
 -0.012886
 -0.005246
 -0.002699
 -0.007792
 -0.010339
 -0.007792
 -0.002699
 -0.005246
 -0.015432
 -0.005246
 -0.012886
 -0.000152
 -0.012886
 -0.012886
 -0.007792
 -0.002699
 -0.012886
 -0.012886
 -0.005246
 -0.010339
 -0.005246
 -0.007792
 -0.012886
 -0.010339
 -0.005246
 -0.005246
 -0.012886
 -0.005246
 -0.002699
 -0.010339
 -0.012886
 -0.010339
 -0.002699
 -0.007792
 -0.012886
 -0.007792
 -0.000152
 -0.005246
 -0.012886
 -0.007792
 -0.002699
 -0.007792
 -0.012886
 -0.007792
 -0.007792
 -0.002699
 -0.007792
 -0.012886
 -0.007792
 -0.005246
 -0.005246
 -0.012886
 -0.007792
 -0.005246
 -0.005246
 -0.010339
 -0.012886
 -0.002699
 -0.007792
 -0.012886
 -0.005246
 -0.002699
 -0.010339
 -0.012886
 -0.007792
 -0.000152
 -0.007792
 -0.010339
 -0.010339
 -0.000152
 -0.012886
 -0.012886
 -0.010339
 -0.002699
 -0.007792
 -0.012886
 -0.010339
 -0.005246
 -0.007792
 -0.012886
 -0.007792
 -0.005246
 -0.007792
 -0.010339
 -0.010339
 -0.010339
 -0.012886
 -0.005246
 -0.002699
 -0.005246
 -0.010339
 -0.007792
 -0.002699
 -0.005246
 -0.010339
 -0.012886
 -0.007792
 -0.002699
 -0.005246
 -0.012886
 -0.002699
 -0.002699
 -0.010339
 -0.012886
 -0.005246
 -0.000152
 -0.007792
 -0.012886
 -0.010339
 -0.002699
 -0.005246
 -0.012886
 -0.005246
 -0.002699
 -0.007792
 -0.012886
 -0.012886
 -0.007792
 -0.002699
 -0.007792
 -0.007792
 -0.007792
 -0.002699
 -0.007792
 -0.012886
 -0.007792
 -0.002699
 -0.005246
 -0.010339
 -0.010339
 -0.005246
 -0.002699
 -0.010339
 -0.012886
 -0.007792
 -0.002699
 -0.005246
 -0.012886
 -0.005246
 -0.002699
 -0.007792
 -0.010339
 -0.000152
 -0.005246
 -0.012886
 -0.005246
 -0.005246
 -0.007792
 -0.012886
 -0.007792
 -0.002699
 -0.007792
 -0.012886
 -0.007792
 -0.002699
 -0.012886
 -0.005246
 -0.015432
 -0.007792
 -0.002699
 -0.012886
 -0.012886
 -0.007792
 -0.002699
 -0.007792
 -0.012886
 -0.007792
 -0.002699
 -0.005246
 -0.010339
 -0.002699
 -0.000152
 -0.010339
 -0.015432
 -0.007792
  0.002395
 -0.005246
 -0.012886
 -0.005246
 -0.002699
 -0.010339
 -0.012886
 -0.010339
 -0.002699
 -0.007792
  0.002395
  0.004941
  0.015128
  0.010035
  0.010035
  0.017675
  0.020221
  0.017675
  0.022768
  0.022768
  0.038048
  0.030408
  0.025315
  0.038048
  0.040595
  0.038048
  0.035502
  0.043142
  0.048235
  0.045688
  0.045688
  0.050782
  0.058422
  0.058422
  0.050782
  0.048235
  0.048235
  0.058422
  0.050782
  0.045688
  0.050782
  0.058422
  0.048235
  0.048235
  0.053329
  0.063515
  0.043142
  0.038048
  0.043142
  0.048235
  0.043142
  0.035502
  0.043142
  0.045688
  0.045688
  0.035502
  0.038048
  0.045688
  0.038048
  0.038048
  0.045688
  0.030408
  0.035502
  0.025315
  0.032955
  0.035502
  0.035502
  0.025315
  0.015128
  0.022768
  0.027862
  0.025315
  0.022768
  0.017675
  0.027862
  0.012581
  0.017675
  0.012581
  0.007488
  0.007488
  0.010035
  0.020221
  0.020221
  0.002395
 -0.002699
  0.002395
  0.007488
  0.007488
  0.002395
 -0.012886
 -0.010339
 -0.005246
 -0.012886
 -0.012886
 -0.005246
 -0.005246
 -0.005246
 -0.012886
 -0.012886
 -0.005246
 -0.002699
 -0.005246
 -0.012886
 -0.007792
 -0.002699
  0.002395
 -0.007792
 -0.012886
 -0.007792
 -0.002699
 -0.007792
 -0.012886
 -0.010339
 -0.002699
 -0.010339
 -0.012886
 -0.010339
 -0.002699
 -0.005246
 -0.012886
 -0.005246
 -0.000152
 -0.002699
 -0.005246
 -0.012886
 -0.010339
 -0.000152
 -0.005246
 -0.012886
 -0.005246
 -0.000152
 -0.007792
 -0.012886
 -0.007792
  0.004941
 -0.007792
 -0.015432
 -0.007792
 -0.002699
 -0.007792
 -0.012886
 -0.012886
 -0.002699
 -0.007792
 -0.015432
 -0.005246
 -0.002699
 -0.005246
 -0.010339
 -0.005246
 -0.002699
 -0.010339
 -0.012886
 -0.012886
  0.002395
 -0.002699
 -0.010339
 -0.012886
 -0.010339
 -0.002699
 -0.005246
 -0.012886
 -0.007792
 -0.023072
 -0.020526
 -0.045993
 -0.051086
 -0.053633
 -0.045993
 -0.074006
   -0.0791
 -0.053633
 -0.045993
 -0.025619
 -0.007792
 -0.002699
  0.068609
  0.106809
  0.262158
  0.292718
  0.376759
  0.389493
  0.473534
   0.47608
  0.547388
  0.555028
  0.623789
  0.618695
  0.705283
  0.702736
   0.76131
   0.76895
  0.863178
  0.860632
  0.878458
  0.875912
  0.911565
  0.911565
  0.962499
  0.959953
  0.952313
  0.954859
  0.957406
  0.962499
  0.937032
  0.934486
  0.881005
  0.881005
  0.875912
  0.870818
  0.802057
  0.799511
  0.763857
  0.771497
  0.672176
  0.649256
  0.600868
  0.555028
  0.527014
  0.420053
  0.384399
  0.287625
  0.272344
   0.19085
  0.180663
  0.106809
  0.106809
  0.007488
  0.002395
   -0.0791
  -0.07146
 -0.196248
 -0.198794
 -0.285382
 -0.290476
 -0.267555
 -0.262462
 -0.236995
 -0.236995
 -0.206435
 -0.198794
 -0.127487
  -0.13258
 -0.130034
  -0.13258
 -0.043446
 -0.045993
 -0.035806
 -0.043446
 -0.051086
 -0.045993
 -0.038353
 -0.043446
 -0.048539
 -0.048539
 -0.043446
 -0.043446
 -0.038353
 -0.045993
 -0.051086
 -0.043446
 -0.045993
 -0.038353
 -0.040899
 -0.045993
 -0.051086
 -0.045993
 -0.040899
 -0.045993
 -0.051086
 -0.045993
 -0.038353
 -0.045993
 -0.051086
 -0.043446
 -0.040899
 -0.045993
 -0.048539
 -0.045993
 -0.038353
 -0.043446
 -0.048539
 -0.045993
 -0.038353
 -0.040899
 -0.048539
 -0.043446
 -0.038353
 -0.045993
 -0.048539
 -0.045993
 -0.038353
 -0.045993
 -0.051086
 -0.040899
 -0.043446
 -0.043446
 -0.051086
 -0.035806
 -0.043446
 -0.048539
 -0.045993
 -0.040899
 -0.045993
 -0.048539
 -0.038353
 -0.043446
 -0.045993
 -0.043446
 -0.040899
 -0.043446
 -0.051086
 -0.043446
 -0.038353
 -0.040899
 -0.056179
 -0.043446
 -0.038353
 -0.043446
 -0.048539
 -0.045993
 -0.040899
 -0.045993
 -0.051086
 -0.048539
 -0.040899
 -0.045993
 -0.048539
 -0.043446
 -0.030712
 -0.033259
 -0.038353
 -0.033259
 -0.028166
 -0.033259
 -0.030712
 -0.025619
 -0.017979
 -0.023072
 -0.030712
 -0.025619
 -0.017979
 -0.025619
 -0.028166
 -0.023072
 -0.020526
 -0.015432
 -0.012886
 -0.015432
 -0.017979
 -0.012886
 -0.020526
 -0.015432
 -0.012886
 -0.010339
 -0.017979
 -0.017979
 -0.010339
 -0.007792
 -0.007792
 -0.012886
 -0.010339
 -0.002699
 -0.005246
 -0.012886
 -0.007792
  0.002395
 -0.007792
 -0.002699
 -0.002699
  0.012581
  0.017675
  0.022768
  0.015128
  0.032955
  0.035502
  0.030408
  0.025315
  0.040595
  0.048235
  0.050782
  0.048235
  0.060969
  0.071155
  0.076249
  0.068609
  0.078795
  0.086436
  0.083889
  0.086436
  0.088982
  0.106809
  0.099169
  0.106809
  0.109356
  0.124636
  0.116996
  0.122089
  0.129729
  0.134823
  0.129729
  0.132276
  0.139916
   0.14501
  0.139916
  0.147556
  0.147556
  0.150103
   0.14501
  0.142463
  0.150103
  0.150103
  0.147556
  0.142463
  0.147556
   0.16029
  0.157743
  0.150103
  0.157743
   0.16793
   0.16029
  0.150103
   0.16029
   0.13737
  0.132276
   0.13737
  0.139916
  0.139916
  0.134823
  0.139916
  0.139916
   0.13737
  0.124636
  0.132276
  0.129729
  0.129729
  0.124636
  0.132276
  0.099169
  0.096622
  0.101716
  0.106809
  0.101716
  0.101716
  0.099169
  0.088982
  0.083889
  0.088982
  0.086436
  0.083889
  0.066062
  0.071155
  0.076249
  0.068609
  0.058422
  0.058422
  0.055875
  0.050782
  0.045688
  0.048235
  0.058422
  0.050782
  0.035502
  0.040595
  0.048235
  0.043142
  0.025315
  0.032955
  0.035502
  0.030408
  0.025315
  0.032955
  0.038048
  0.030408
  0.025315
  0.022768
  0.027862
  0.022768
  0.015128
  0.020221
  0.027862
  0.022768
  0.022768
  0.020221
  0.027862
  0.020221
  0.025315
  0.017675
  0.015128
  0.010035
  0.010035
  0.017675
  0.012581
  0.012581
  0.020221
  0.010035
  0.010035
  0.017675
  0.015128
 -0.002699
  0.002395
  0.007488
  0.002395
 -0.002699
  0.004941
  0.002395
 -0.005246
  0.002395
  0.007488
 -0.002699
 -0.010339
 -0.007792
 -0.002699
 -0.010339
 -0.015432
 -0.007792
 -0.000152
 -0.005246
 -0.012886
 -0.012886
 -0.005246
 -0.007792
 -0.005246
 -0.015432
 -0.012886
 -0.002699
 -0.005246
 -0.005246
 -0.012886
 -0.012886
 -0.010339
 -0.005246
 -0.005246
 -0.007792
 -0.007792
 -0.002699
 -0.005246
 -0.002699
 -0.007792
 -0.012886
 -0.010339
 -0.010339
 -0.002699
 -0.005246
 -0.010339
 -0.007792
 -0.002699
 -0.007792
 -0.012886
 -0.007792
 -0.002699
 -0.005246
 -0.012886
 -0.007792
 -0.002699
 -0.007792
 -0.012886
 -0.010339
  0.002395
 -0.010339
 -0.012886
 -0.007792
 -0.002699
 -0.007792
 -0.017979
 -0.002699
 -0.002699
 -0.007792
 -0.005246
 -0.010339
 -0.007792
 -0.005246
 -0.005246
 -0.007792
 -0.005246
 -0.007792
 -0.012886
 -0.007792
 -0.002699
 -0.005246
 -0.012886
 -0.005246
 -0.005246
 -0.002699
 -0.010339
 -0.015432
 -0.007792
 -0.005246
 -0.010339
 -0.012886
 -0.010339
 -0.002699
 -0.010339
 -0.012886
 -0.005246
  0.002395
 -0.005246
 -0.012886
 -0.007792
 -0.002699
 -0.005246
 -0.010339
 -0.005246
 -0.005246
 -0.010339
 -0.005246
 -0.012886
 -0.010339
 -0.005246
 -0.012886
 -0.012886
 -0.005246
 -0.000152
 -0.007792
 -0.015432
 -0.007792
 -0.002699
 -0.007792
 -0.012886
 -0.005246
  0.002395
 -0.005246
 -0.010339
 -0.007792
  0.002395
 -0.007792
 -0.012886
 -0.007792
 -0.002699
 -0.010339
 -0.012886
 -0.007792
 -0.002699
 -0.012886
 -0.015432
 -0.010339
 -0.002699
 -0.007792
 -0.012886
 -0.010339
 -0.005246
 -0.007792
 -0.007792
 -0.012886
 -0.010339
 -0.005246
 -0.005246
 -0.012886
 -0.010339
 -0.000152
 -0.007792
 -0.012886
 -0.007792
 -0.005246
 -0.007792
 -0.010339
 -0.012886
 -0.002699
 -0.007792
 -0.015432
 -0.007792
 -0.002699
 -0.005246
 -0.015432
 -0.007792
 -0.000152
 -0.005246
 -0.012886
 -0.007792
 -0.002699
 -0.010339
 -0.010339
 -0.010339
 -0.002699
 -0.002699
 -0.015432
 -0.010339
 -0.002699
 -0.005246
 -0.010339
 -0.010339
 -0.007792
 -0.005246
 -0.012886
 -0.012886
 -0.005246
 -0.002699
 -0.010339
 -0.012886
 -0.007792
  0.007488
  0.002395
  0.017675
  0.017675
  0.043142
  0.048235
  0.066062
  0.066062
  0.073702
  0.081342
  0.111903
  0.109356
  0.139916
  0.134823
   0.16793
   0.17557
   0.19849
   0.19085
  0.234144
  0.236691
  0.277438
  0.274891
  0.305452
  0.313092
  0.356385
  0.356385
  0.386946
  0.412413
  0.435333
  0.470987
  0.470987
  0.506641
  0.516827
  0.557575
  0.560121
  0.593228
  0.598322
  0.641616
  0.639069
  0.672176
  0.674723
  0.718016
  0.718016
  0.748577
  0.756217
  0.789324
  0.781684
  0.807151
  0.812244
  0.847898
  0.840258
  0.865725
  0.870818
  0.893739
  0.886098
  0.906472
  0.903925
  0.931939
  0.934486
  0.931939
  0.937032
  0.954859
  0.952313
  0.957406
  0.962499
  0.957406
  0.952313
  0.965046
  0.952313
  0.944673
  0.949766
  0.954859
  0.934486
  0.937032
  0.924299
  0.914112
  0.906472
  0.906472
  0.898832
  0.883552
  0.870818
  0.881005
  0.852991
  0.845351
  0.822431
  0.827524
  0.791871
  0.789324
  0.763857
   0.76895
  0.728203
  0.735843
   0.70783
   0.70783
  0.656896
  0.669629
  0.633975
  0.626335
  0.585588
  0.588135
  0.560121
  0.562668
  0.516827
  0.524467
  0.478627
   0.47608
   0.43024
  0.435333
  0.402226
  0.384399
  0.351292
  0.333465
  0.323278
  0.287625
  0.279985
  0.241784
  0.234144
   0.19849
   0.19085
   0.16793
  0.173023
  0.129729
  0.124636
  0.091529
  0.099169
  0.053329
  0.038048
  0.022768
  0.030408
 -0.007792
 -0.012886
 -0.033259
 -0.028166
 -0.061273
 -0.066366
  -0.09438
 -0.089287
 -0.114753
 -0.112207
  -0.12494
 -0.130034
 -0.158047
 -0.150407
 -0.152954
 -0.158047
 -0.188608
 -0.178421
 -0.183514
 -0.188608
 -0.193701
 -0.191154
 -0.198794
 -0.198794
 -0.201341
 -0.196248
 -0.196248
 -0.206435
 -0.198794
 -0.196248
 -0.196248
 -0.203888
 -0.198794
 -0.193701
 -0.198794
 -0.201341
 -0.198794
 -0.206435
 -0.208981
 -0.214075
 -0.206435
 -0.201341
 -0.206435
 -0.219168
 -0.216621
 -0.214075
 -0.214075
 -0.216621
 -0.221715
 -0.221715
 -0.219168
 -0.226808
 -0.224261
 -0.244635
 -0.239542
 -0.236995
 -0.224261
 -0.234448
 -0.242088
 -0.242088
 -0.242088
 -0.257369
 -0.259915
 -0.259915
 -0.259915
 -0.259915
 -0.259915
 -0.265009
 -0.280289
 -0.277742
 -0.277742
 -0.272649
 -0.285382
 -0.282836
 -0.290476
 -0.290476
 -0.300662
 -0.287929
 -0.298116
 -0.293022
 -0.310849
 -0.305756
 -0.318489
 -0.308302
 -0.315943
 -0.321036
 -0.318489
 -0.310849
 -0.323583
 -0.331223
 -0.326129
 -0.318489
 -0.336316
 -0.333769
 -0.326129
 -0.336316
 -0.338863
 -0.336316
 -0.338863
 -0.343956
 -0.346503
 -0.346503
  -0.34141
 -0.343956
 -0.359236
 -0.354143
  -0.34905
 -0.354143
 -0.359236
  -0.35669
 -0.346503
 -0.351596
 -0.361783
  -0.35669
  -0.34905
 -0.359236
 -0.359236
 -0.359236
  -0.34905
 -0.354143
 -0.361783
  -0.35669
 -0.346503
  -0.34141
  -0.34905
  -0.34141
 -0.336316
 -0.351596
  -0.34141
 -0.333769
 -0.328676
 -0.331223
 -0.338863
 -0.323583
 -0.323583
 -0.318489
 -0.318489
 -0.323583
 -0.318489
 -0.298116
 -0.303209
 -0.303209
 -0.295569
 -0.290476
 -0.287929
 -0.280289
 -0.290476
 -0.277742
 -0.265009
 -0.267555
 -0.267555
 -0.257369
 -0.247182
 -0.244635
 -0.242088
 -0.236995
 -0.226808
 -0.221715
 -0.216621
 -0.224261
 -0.208981
 -0.201341
 -0.198794
 -0.198794
 -0.188608
 -0.180968
 -0.175874
 -0.173328
 -0.175874
 -0.168234
 -0.158047
 -0.160594
 -0.155501
 -0.155501
 -0.135127
 -0.137674
 -0.135127
  -0.13258
 -0.119847
 -0.122394
   -0.1173
 -0.112207
 -0.096927
  -0.10202
 -0.099473
 -0.096927
 -0.076553
 -0.084193
 -0.084193
 -0.074006
 -0.074006
  -0.07146
  -0.06382
 -0.053633
 -0.053633
 -0.051086
 -0.038353
 -0.045993
 -0.048539
 -0.033259
 -0.023072
 -0.033259
 -0.040899
 -0.028166
 -0.017979
 -0.025619
 -0.025619
 -0.017979
 -0.010339
 -0.012886
 -0.023072
 -0.017979
 -0.010339
 -0.015432
 -0.023072
 -0.012886
 -0.002699
 -0.002699
 -0.012886
 -0.010339
 -0.000152
 -0.005246
 -0.012886
 -0.007792
 -0.005246
 -0.007792
 -0.010339
 -0.007792
 -0.002699
 -0.007792
 -0.015432
 -0.007792
 -0.002699
 -0.010339
 -0.015432
 -0.005246
 -0.005246
 -0.007792
 -0.012886
 -0.010339
 -0.000152
 -0.012886
 -0.012886
 -0.007792
 -0.002699
 -0.007792
 -0.015432
 -0.007792
 -0.002699
 -0.005246
 -0.012886
 -0.005246
 -0.000152
 -0.007792
 -0.012886
 -0.005246
 -0.005246
 -0.010339
 -0.010339
 -0.010339
 -0.007792
 -0.005246
 -0.007792
 -0.015432
 -0.005246
 -0.000152
 -0.002699
 -0.010339
 -0.007792
 -0.002699
 -0.012886
 -0.007792
 -0.002699
 -0.012886
 -0.012886
 -0.010339
 -0.012886
 -0.005246
 -0.012886
 -0.005246
 -0.005246
 -0.010339
 -0.012886
 -0.007792
 -0.002699
 -0.010339
 -0.015432
 -0.007792
 -0.002699
 -0.007792
 -0.012886
 -0.002699
 -0.010339
 -0.012886
 -0.007792
 -0.002699
 -0.007792
 -0.015432
 -0.007792
 -0.002699
 -0.005246
 -0.012886
 -0.010339
 -0.000152
 -0.007792
 -0.012886
 -0.012886
 -0.002699
 -0.005246
 -0.012886
 -0.007792
 -0.002699
 -0.005246
 -0.010339
 -0.005246
 -0.010339
 -0.007792
 -0.020526
 -0.007792
 -0.005246
 -0.005246
 -0.005246
 -0.010339
 -0.007792
 -0.005246
 -0.005246
 -0.012886
 -0.010339
 -0.002699
 -0.010339
 -0.012886
 -0.007792
 -0.000152
 -0.005246
 -0.012886
 -0.005246
 -0.005246
 -0.005246
 -0.007792
 -0.015432
 -0.007792
 -0.002699
 -0.010339
 -0.012886
 -0.007792
 -0.010339
 -0.007792
 -0.007792
 -0.012886
 -0.007792
 -0.002699
 -0.002699
 -0.005246
 -0.012886
 -0.010339
 -0.002699
 -0.002699
 -0.005246
 -0.012886
 -0.007792
 -0.005246
 -0.010339
 -0.012886
 -0.012886
 -0.002699
 -0.005246
 -0.012886
 -0.012886
 -0.005246
 -0.007792
 -0.012886
 -0.012886
 -0.005246
 -0.007792
 -0.012886
 -0.007792
 -0.005246
 -0.000152
 -0.005246
 -0.012886
 -0.010339
 -0.002699
 -0.010339
 -0.010339
 -0.005246
 -0.005246
 -0.007792
 -0.012886
 -0.005246
 -0.002699
 -0.005246
 -0.012886
 -0.007792
 -0.002699
 -0.010339
 -0.012886
 -0.010339
  0.002395
 -0.010339
 -0.012886
 -0.012886
 -0.002699
 -0.012886
 -0.012886
 -0.007792
 -0.002699
 -0.002699
 -0.012886
 -0.007792
 -0.007792
  0.002395
 -0.007792
 -0.012886
 -0.007792
 -0.002699
 -0.007792
 -0.015432
 -0.010339
 -0.002699
 -0.010339
 -0.012886
 -0.007792
 -0.002699
 -0.010339
 -0.012886
 -0.007792
 -0.002699
 -0.005246
 -0.012886
 -0.007792
 -0.002699
 -0.010339
 -0.012886
 -0.007792
 -0.000152
 -0.007792
 -0.010339
 -0.007792
 -0.002699
 -0.007792
 -0.012886
 -0.002699
 -0.005246
 -0.010339
 -0.007792
 -0.007792
 -0.002699
 -0.007792
 -0.010339
 -0.002699
 -0.005246
 -0.012886
 -0.007792
 -0.002699
 -0.005246
 -0.010339
 -0.005246
 -0.002699
 -0.010339
 -0.007792
 -0.010339
 -0.000152
 -0.005246
 -0.012886
 -0.010339
 -0.000152
 -0.012886
 -0.015432
 -0.007792
 -0.005246
 -0.012886
 -0.007792
 -0.000152
 -0.007792
 -0.012886
 -0.010339
  0.002395
 -0.010339
 -0.012886
 -0.012886
 -0.010339
 -0.002699
 -0.005246
 -0.012886
 -0.007792
 -0.005246
 -0.005246
 -0.012886
 -0.012886
 -0.005246
 -0.000152
 -0.007792
 -0.012886
 -0.005246
 -0.002699
 -0.007792
 -0.015432
 -0.012886
 -0.002699
 -0.005246
 -0.012886
 -0.010339
 -0.010339
 -0.002699
 -0.005246
 -0.012886
 -0.007792
 -0.010339
 -0.005246
 -0.010339
 -0.007792
 -0.012886
 -0.007792
 -0.002699
 -0.005246
 -0.005246
 -0.007792
 -0.010339
 -0.002699
 -0.010339
 -0.012886
 -0.007792
 -0.005246
 -0.002699
 -0.007792
 -0.010339
 -0.012886
 -0.012886
 -0.000152
 -0.007792
 -0.012886
 -0.005246
 -0.002699
 -0.002699
 -0.007792
 -0.012886
 -0.010339
 -0.005246
 -0.012886
 -0.012886
 -0.010339
 -0.002699
 -0.005246
 -0.005246
 -0.012886
 -0.007792
 -0.002699
 -0.015432
 -0.015432
 -0.007792
 -0.002699
 -0.010339
 -0.012886
 -0.012886
 -0.007792
 -0.002699
 -0.007792
 -0.015432
 -0.015432
 -0.010339
 -0.002699
 -0.010339
 -0.012886
 -0.005246
 -0.002699
 -0.007792
 -0.017979
 -0.005246
  0.002395
 -0.005246
 -0.012886
 -0.007792
 -0.005246
 -0.000152
 -0.010339
 -0.012886
 -0.007792
 -0.005246
 -0.007792
 -0.012886
 -0.010339
 -0.000152
 -0.007792
 -0.012886
 -0.007792
 -0.002699
 -0.005246
 -0.012886
 -0.007792
 -0.002699
 -0.010339
 -0.005246
 -0.005246
 -0.007792
 -0.002699
 -0.007792
 -0.012886
 -0.015432
 -0.012886
 -0.000152
 -0.007792
 -0.010339
 -0.012886
 -0.007792
 -0.012886
 -0.007792
 -0.000152
 -0.012886
 -0.012886
 -0.007792
 -0.002699
 -0.005246
 -0.012886
 -0.007792
 -0.010339
 -0.010339
 -0.007792
 -0.000152
 -0.005246
 -0.012886
 -0.012886
 -0.007792
 -0.000152
 -0.010339
 -0.010339
 -0.012886
 -0.005246
 -0.005246
 -0.010339
 -0.012886
 -0.010339
 -0.005246
 -0.002699
 -0.007792
 -0.012886
 -0.012886
 -0.012886
 -0.005246
 -0.007792
 -0.007792
 -0.010339
 -0.007792
 -0.002699
 -0.002699
 -0.005246
 -0.010339
 -0.005246
 -0.005246
 -0.002699
 -0.007792
 -0.012886
 -0.007792
 -0.007792
 -0.010339
 -0.005246
 -0.012886
 -0.005246
 -0.005246
 -0.010339
 -0.012886
 -0.005246
 -0.002699
 -0.010339
 -0.015432
 -0.012886
 -0.000152
 -0.007792
 -0.010339
 -0.012886
 -0.002699
 -0.010339
 -0.005246
 -0.012886
 -0.007792
 -0.000152
 -0.005246
 -0.015432
 -0.010339
 -0.002699
 -0.007792
 -0.012886
 -0.010339
 -0.002699
 -0.005246
 -0.010339
 -0.012886
 -0.012886
  0.002395
 -0.010339
 -0.015432
 -0.005246
 -0.005246
 -0.005246
 -0.005246
 -0.012886
 -0.007792
 -0.002699
 -0.007792
 -0.010339
 -0.005246
 -0.002699
 -0.007792
 -0.012886
 -0.007792
 -0.002699
 -0.007792
 -0.015432
 -0.010339
 -0.005246
 -0.012886
 -0.007792
 -0.002699
 -0.007792
 -0.012886
 -0.010339
 -0.002699
 -0.012886
 -0.012886
 -0.005246
 -0.002699
 -0.010339
 -0.012886
 -0.007792
 -0.005246
 -0.002699
 -0.005246
 -0.012886
 -0.007792
 -0.002699
 -0.007792
 -0.007792
 -0.015432
 -0.010339
 -0.002699
 -0.010339
 -0.012886
 -0.012886
 -0.005246
 -0.005246
 -0.012886
 -0.007792
 -0.002699
 -0.007792
 -0.007792
 -0.012886
 -0.007792
  0.002395
 -0.010339
 -0.010339
 -0.007792
 -0.002699
 -0.012886
 -0.007792
 -0.002699
 -0.010339
 -0.012886
 -0.010339
 -0.005246
 -0.010339
 -0.012886
 -0.005246
 -0.010339
 -0.015432
 -0.007792
 -0.002699
 -0.010339
 -0.010339
 -0.000152
 -0.005246
 -0.012886
 -0.010339
 -0.002699
 -0.010339
 -0.012886
 -0.007792
 -0.002699
 -0.012886
 -0.012886
 -0.002699
 -0.005246
 -0.015432
 -0.007792
 -0.002699
 -0.005246
 -0.012886
 -0.007792
 -0.012886
 -0.005246
 -0.012886
 -0.010339
 -0.002699
  0.002395
 -0.005246
  0.015128
  0.015128
  0.017675
  0.015128
  0.017675
  0.020221
  0.027862
  0.025315
  0.032955
  0.027862
  0.027862
  0.032955
  0.045688
  0.043142
  0.035502
  0.038048
  0.040595
  0.048235
  0.050782
  0.048235
  0.045688
  0.048235
  0.053329
  0.053329
  0.048235
  0.055875
  0.053329
  0.050782
  0.045688
  0.050782
  0.053329
  0.048235
  0.050782
  0.050782
  0.040595
  0.035502
  0.043142
  0.048235
  0.035502
  0.043142
  0.048235
  0.043142
  0.035502
  0.040595
  0.048235
  0.043142
  0.035502
  0.043142
  0.048235
  0.032955
  0.032955
  0.032955
  0.038048
  0.030408
  0.032955
  0.025315
  0.022768
  0.017675
  0.022768
  0.027862
  0.017675
  0.017675
  0.025315
  0.015128
  0.007488
  0.017675
  0.017675
  0.010035
  0.007488
  0.012581
  0.004941
 -0.002699
  0.002395
  0.010035
 -0.000152
 -0.002699
 -0.010339
 -0.007792
 -0.010339
 -0.012886
 -0.010339
 -0.005246
 -0.012886
 -0.010339
 -0.007792
 -0.005246
 -0.010339
 -0.005246
 -0.010339
 -0.005246
 -0.002699
 -0.007792
 -0.012886
 -0.005246
 -0.007792
 -0.000152
 -0.007792
 -0.012886
 -0.010339
 -0.005246
 -0.007792
 -0.012886
 -0.010339
 -0.000152
 -0.005246
 -0.007792
 -0.012886
 -0.010339
 -0.002699
 -0.005246
 -0.012886
 -0.012886
 -0.002699
 -0.007792
 -0.015432
 -0.007792
 -0.005246
 -0.010339
 -0.012886
 -0.007792
 -0.000152
 -0.010339
 -0.012886
 -0.007792
 -0.002699
 -0.012886
 -0.012886
 -0.010339
 -0.002699
 -0.005246
 -0.012886
 -0.012886
 -0.002699
 -0.012886
 -0.015432
 -0.010339
 -0.007792
 -0.002699
 -0.012886
 -0.010339
 -0.002699
 -0.000152
 -0.012886
 -0.007792
 -0.010339
 -0.002699
 -0.010339
 -0.012886
 -0.005246
 -0.002699
 -0.020526
 -0.025619
 -0.045993
 -0.048539
 -0.043446
 -0.053633
 -0.076553
 -0.074006
 -0.048539
 -0.053633
 -0.033259
 -0.025619
  0.002395
  0.007488
  0.099169
  0.088982
  0.295265
  0.300358
  0.394586
  0.389493
   0.47608
  0.470987
  0.555028
  0.552481
  0.626335
  0.618695
   0.70019
   0.70783
   0.76895
   0.76131
  0.855538
  0.860632
  0.883552
  0.878458
  0.901379
  0.909019
  0.962499
  0.957406
  0.954859
  0.954859
  0.965046
  0.947219
  0.931939
  0.893739
  0.893739
  0.868272
  0.865725
  0.809698
  0.802057
   0.76895
   0.76131
  0.677269
  0.679816
  0.616149
  0.608508
  0.519374
  0.521921
  0.389493
  0.392039
  0.274891
  0.269798
  0.188303
   0.19085
  0.094076
  0.099169
  0.010035
  0.007488
 -0.074006
   -0.0791
 -0.198794
 -0.193701
 -0.285382
 -0.290476
 -0.267555
 -0.267555
 -0.239542
 -0.236995
 -0.196248
 -0.198794
 -0.137674
  -0.13258
 -0.127487
 -0.084193
 -0.045993
 -0.045993
 -0.043446
 -0.043446
 -0.045993
 -0.043446
 -0.035806
 -0.043446
 -0.048539
 -0.043446
 -0.030712
 -0.045993
 -0.043446
 -0.040899
 -0.043446
 -0.051086
 -0.045993
 -0.030712
 -0.043446
 -0.051086
 -0.040899
 -0.038353
 -0.048539
 -0.048539
 -0.043446
 -0.038353
 -0.045993
 -0.048539
 -0.043446
 -0.038353
 -0.040899
 -0.043446
 -0.048539
 -0.043446
 -0.040899
 -0.045993
 -0.048539
 -0.045993
 -0.040899
 -0.045993
 -0.045993
 -0.051086
 -0.043446
 -0.035806
 -0.051086
 -0.051086
 -0.040899
 -0.043446
 -0.043446
 -0.053633
 -0.043446
 -0.038353
 -0.043446
 -0.048539
 -0.045993
 -0.038353
 -0.043446
 -0.048539
 -0.043446
 -0.038353
 -0.045993
 -0.043446
 -0.040899
 -0.043446
 -0.051086
 -0.043446
 -0.043446
 -0.043446
 -0.048539
 -0.040899
 -0.038353
 -0.043446
 -0.048539
 -0.045993
 -0.043446
 -0.038353
 -0.045993
 -0.051086
 -0.045993
 -0.043446
 -0.038353
 -0.043446
 -0.048539
 -0.040899
 -0.033259
 -0.028166
 -0.033259
 -0.038353
 -0.038353
 -0.025619
 -0.020526
 -0.017979
 -0.025619
 -0.030712
 -0.023072
 -0.017979
 -0.017979
 -0.028166
 -0.028166
 -0.025619
 -0.025619
 -0.010339
 -0.017979
 -0.023072
 -0.017979
 -0.010339
 -0.015432
 -0.023072
 -0.020526
 -0.010339
 -0.015432
 -0.012886
 -0.020526
 -0.010339
 -0.002699
 -0.005246
 -0.005246
 -0.005246
 -0.005246
 -0.010339
 -0.007792
 -0.005246
 -0.007792
 -0.002699
  0.007488
  0.012581
  0.022768
  0.020221
  0.027862
  0.032955
  0.032955
  0.043142
  0.038048
  0.048235
  0.053329
  0.048235
  0.058422
  0.058422
  0.071155
  0.063515
  0.076249
  0.078795
  0.086436
  0.081342
  0.086436
  0.096622
  0.101716
  0.099169
  0.109356
  0.114449
  0.119543
  0.119543
  0.129729
  0.132276
  0.129729
  0.124636
  0.139916
   0.14501
  0.139916
  0.132276
   0.15265
  0.147556
  0.139916
  0.147556
   0.15265
  0.150103
  0.142463
  0.147556
  0.147556
  0.157743
  0.150103
   0.16029
  0.162836
  0.157743
   0.15265
   0.16029
   0.16029
  0.139916
  0.129729
   0.13737
   0.14501
   0.13737
  0.134823
   0.13737
   0.13737
  0.139916
  0.142463
  0.129729
  0.129729
  0.132276
  0.129729
  0.129729
  0.134823
  0.099169
  0.096622
  0.101716
  0.104262
  0.099169
  0.094076
  0.088982
  0.096622
  0.091529
  0.086436
  0.086436
  0.081342
  0.071155
  0.066062
  0.068609
  0.068609
  0.060969
  0.048235
  0.050782
  0.058422
  0.050782
  0.045688
  0.050782
  0.045688
  0.045688
  0.035502
  0.048235
  0.035502
  0.027862
  0.032955
  0.038048
  0.035502
  0.025315
  0.032955
  0.035502
  0.030408
  0.022768
  0.022768
  0.027862
  0.017675
  0.022768
  0.030408
  0.025315
  0.015128
  0.027862
  0.022768
  0.015128
  0.025315
  0.022768
  0.007488
  0.010035
  0.017675
  0.015128
  0.007488
  0.017675
  0.012581
  0.007488
  0.012581
  0.020221
  0.015128
  0.002395
  0.007488
  0.004941
 -0.002699
  0.002395
  0.007488
 -0.002699
 -0.000152
 -0.000152
  0.010035
  0.004941
 -0.000152
 -0.010339
 -0.010339
 -0.012886
 -0.010339
  0.002395
 -0.010339
 -0.010339
 -0.005246
 -0.010339
 -0.012886
 -0.005246
 -0.002699
 -0.005246
 -0.015432
 -0.002699
 -0.007792
 -0.010339
 -0.007792
 -0.002699
 -0.005246
 -0.010339
 -0.007792
 -0.000152
 -0.012886
 -0.005246
 -0.005246
 -0.005246
 -0.010339
 -0.005246
 -0.005246
 -0.012886
 -0.007792
 -0.002699
 -0.007792
 -0.012886
 -0.010339
  0.002395
 -0.007792
 -0.012886
 -0.002699
 -0.010339
 -0.005246
 -0.012886
 -0.002699
 -0.007792
 -0.010339
 -0.012886
 -0.012886
 -0.002699
 -0.007792
 -0.012886
 -0.002699
 -0.007792
 -0.012886
 -0.002699
 -0.002699
 -0.005246
 -0.015432
 -0.010339
 -0.002699
 -0.007792
 -0.012886
  0.002395
 -0.002699
 -0.012886
 -0.007792
 -0.005246
 -0.007792
 -0.012886
 -0.007792
 -0.002699
 -0.007792
 -0.012886
 -0.007792
 -0.005246
 -0.005246
 -0.012886
 -0.005246
 -0.002699
 -0.010339
 -0.015432
 -0.007792
 -0.007792
 -0.012886
 -0.010339
 -0.005246
 -0.012886
 -0.012886
 -0.005246
 -0.002699
 -0.010339
 -0.007792
 -0.012886
 -0.007792
 -0.000152
 -0.002699
 -0.012886
 -0.005246
 -0.002699
 -0.007792
 -0.012886
 -0.007792
 -0.005246
 -0.005246
 -0.015432
 -0.012886
 -0.005246
 -0.002699
 -0.007792
 -0.010339
 -0.007792
 -0.005246
 -0.005246
 -0.012886
 -0.010339
 -0.002699
 -0.005246
 -0.010339
 -0.010339
 -0.002699
 -0.002699
 -0.007792
 -0.010339
 -0.010339
 -0.002699
 -0.005246
 -0.012886
 -0.007792
 -0.002699
 -0.007792
 -0.010339
 -0.012886
 -0.010339
 -0.000152
 -0.007792
 -0.012886
 -0.005246
 -0.000152
 -0.005246
 -0.012886
 -0.010339
 -0.002699
 -0.007792
 -0.012886
 -0.005246
 -0.007792
 -0.012886
 -0.005246
 -0.002699
 -0.007792
 -0.012886
 -0.010339
 -0.005246
 -0.010339
 -0.012886
 -0.010339
  0.002395
 -0.007792
 -0.012886
 -0.007792
 -0.000152
 -0.007792
 -0.012886
 -0.002699
 -0.005246
 -0.005246
 -0.010339
 -0.010339
 -0.002699
 -0.007792
 -0.012886
 -0.007792
 -0.005246
 -0.005246
 -0.012886
 -0.010339
  0.002395
 -0.010339
 -0.012886
 -0.012886
  0.002395
  0.010035
  0.022768
  0.017675
  0.040595
  0.048235
  0.066062
  0.058422
  0.078795
  0.083889
  0.109356
  0.109356
  0.139916
   0.16029
  0.170477
   0.18321
   0.19085
  0.231597
  0.231597
  0.262158
  0.269798
  0.313092
  0.310545
  0.343652
  0.348745
  0.394586
  0.386946
  0.427693
  0.435333
  0.478627
  0.473534
  0.511734
  0.509187
  0.557575
  0.565215
  0.595775
  0.590682
  0.639069
  0.644162
  0.677269
  0.672176
  0.718016
  0.720563
  0.756217
  0.751124
  0.786777
  0.789324
  0.822431
  0.807151
  0.842805
  0.842805
  0.873365
  0.868272
  0.888645
  0.903925
  0.914112
  0.924299
  0.919206
  0.937032
  0.944673
  0.944673
  0.939579
  0.957406
  0.959953
  0.959953
  0.952313
  0.957406
  0.962499
  0.947219
  0.944673
  0.949766
  0.954859
  0.937032
  0.931939
  0.916659
  0.924299
  0.909019
  0.903925
  0.888645
  0.893739
  0.870818
  0.860632
  0.852991
  0.855538
  0.822431
  0.814791
  0.791871
  0.796964
   0.76895
   0.76131
   0.73075
  0.735843
   0.71547
  0.710376
  0.661989
  0.654349
  0.633975
  0.605962
  0.585588
  0.570308
  0.567761
  0.527014
  0.521921
  0.478627
   0.47608
   0.43788
   0.43024
  0.399679
  0.402226
  0.361479
  0.353839
  0.318185
  0.325825
  0.274891
  0.279985
  0.229051
  0.236691
   0.19849
   0.19085
   0.16793
  0.173023
  0.129729
  0.124636
  0.088982
  0.094076
  0.050782
  0.050782
  0.027862
  0.020221
 -0.015432
 -0.007792
 -0.028166
 -0.033259
  -0.07146
  -0.06382
  -0.08674
 -0.089287
 -0.119847
  -0.12494
  -0.12494
 -0.145314
 -0.155501
 -0.152954
 -0.165687
 -0.178421
 -0.180968
 -0.180968
 -0.193701
 -0.193701
 -0.191154
 -0.193701
 -0.203888
 -0.198794
 -0.193701
 -0.198794
 -0.206435
 -0.198794
 -0.208981
 -0.201341
 -0.198794
 -0.193701
 -0.198794
 -0.203888
 -0.198794
 -0.196248
 -0.198794
 -0.203888
 -0.201341
 -0.208981
 -0.214075
 -0.208981
 -0.201341
 -0.219168
 -0.224261
 -0.219168
 -0.216621
 -0.221715
 -0.219168
 -0.221715
 -0.226808
 -0.231902
 -0.236995
 -0.229355
 -0.236995
 -0.242088
 -0.236995
 -0.236995
 -0.247182
 -0.249728
 -0.252275
 -0.257369
 -0.265009
 -0.257369
 -0.259915
 -0.270102
 -0.272649
 -0.267555
 -0.267555
 -0.277742
 -0.280289
 -0.275195
 -0.280289
 -0.293022
 -0.290476
 -0.287929
 -0.295569
 -0.303209
 -0.293022
 -0.290476
 -0.305756
 -0.310849
 -0.318489
 -0.310849
 -0.318489
 -0.321036
 -0.318489
 -0.310849
 -0.326129
 -0.331223
 -0.323583
 -0.321036
 -0.336316
 -0.338863
 -0.333769
 -0.328676
 -0.331223
  -0.34905
  -0.34141
 -0.338863
 -0.346503
  -0.34905
 -0.343956
  -0.34905
 -0.351596
 -0.359236
  -0.35669
  -0.34905
 -0.359236
 -0.359236
  -0.35669
  -0.35669
  -0.34905
 -0.354143
 -0.361783
 -0.354143
  -0.34905
 -0.359236
  -0.35669
 -0.354143
 -0.346503
  -0.35669
 -0.359236
 -0.338863
  -0.34141
 -0.338863
 -0.343956
  -0.34905
 -0.346503
 -0.328676
 -0.336316
 -0.338863
 -0.336316
 -0.323583
 -0.315943
 -0.321036
 -0.323583
 -0.313396
 -0.310849
 -0.298116
 -0.295569
 -0.300662
 -0.298116
 -0.298116
 -0.280289
 -0.282836
 -0.280289
 -0.272649
 -0.259915
 -0.259915
 -0.254822
 -0.259915
 -0.242088
 -0.239542
 -0.234448
 -0.236995
 -0.229355
 -0.226808
 -0.219168
 -0.211528
 -0.211528
 -0.206435
 -0.203888
 -0.198794
 -0.186061
 -0.186061
 -0.178421
 -0.191154
 -0.168234
 -0.168234
 -0.152954
 -0.160594
 -0.155501
 -0.147861
 -0.135127
 -0.137674
 -0.135127
  -0.12494
 -0.114753
 -0.112207
 -0.114753
  -0.10202
 -0.096927
 -0.091833
 -0.099473
 -0.084193
 -0.076553
   -0.0791
 -0.091833
  -0.07146
  -0.07146
 -0.056179
  -0.06382
 -0.058726
 -0.053633
 -0.040899
 -0.048539
 -0.051086
 -0.043446
 -0.030712
 -0.033259
 -0.040899
 -0.033259
 -0.017979
 -0.020526
 -0.025619
 -0.030712
 -0.012886
 -0.010339
 -0.010339
 -0.015432
 -0.023072
 -0.015432
 -0.012886
 -0.012886
 -0.015432
 -0.012886
 -0.010339
  0.002395
 -0.007792
 -0.012886
 -0.007792
 -0.002699
 -0.007792
 -0.012886
 -0.007792
 -0.002699
 -0.005246
 -0.007792
 -0.012886
 -0.007792
 -0.005246
 -0.007792
 -0.012886
 -0.007792
 -0.002699
 -0.007792
 -0.007792
 -0.017979
 -0.010339
 -0.000152
 -0.007792
 -0.015432
 -0.007792
 -0.010339
 -0.005246
 -0.005246
 -0.012886
 -0.012886
 -0.002699
 -0.010339
 -0.012886
 -0.007792
 -0.002699
 -0.007792
 -0.012886
 -0.007792
 -0.005246
 -0.005246
 -0.012886
 -0.012886
 -0.005246
 -0.002699
 -0.007792
 -0.015432
 -0.005246
  0.002395
 -0.010339
 -0.012886
 -0.007792
 -0.002699
 -0.007792
 -0.015432
 -0.007792
 -0.002699
 -0.010339
 -0.012886
 -0.010339
 -0.002699
 -0.010339
 -0.010339
 -0.010339
 -0.002699
 -0.007792
 -0.015432
 -0.012886
 -0.002699
 -0.007792
 -0.010339
 -0.007792
 -0.002699
 -0.007792
 -0.015432
 -0.007792
 -0.007792
 -0.012886
 -0.007792
 -0.002699
 -0.007792
 -0.015432
 -0.005246
 -0.010339
 -0.012886
 -0.007792
 -0.002699
 -0.007792
 -0.012886
 -0.002699
 -0.007792
 -0.005246
 -0.010339
 -0.007792
 -0.005246
 -0.012886
 -0.007792
  0.002395
 -0.007792
 -0.012886
 -0.000152
 -0.002699
 -0.007792
 -0.015432
 -0.007792
 -0.002699
 -0.005246
 -0.012886
 -0.002699
 -0.002699
 -0.010339
 -0.007792
 -0.002699
 -0.007792
 -0.012886
 -0.007792
 -0.002699
 -0.007792
 -0.012886
 -0.002699
 -0.007792
 -0.012886
 -0.007792
 -0.002699
 -0.007792
 -0.012886
 -0.010339
 -0.005246
 -0.007792
 -0.010339
 -0.007792
 -0.002699
 -0.012886
 -0.012886
 -0.007792
 -0.007792
 -0.012886
 -0.010339
 -0.002699
 -0.005246
 -0.007792
 -0.007792
 -0.002699
 -0.007792
 -0.010339
 -0.007792
 -0.002699
 -0.007792
 -0.012886
 -0.005246
 -0.005246
 -0.012886
 -0.010339
 -0.005246
 -0.007792
 -0.012886
 -0.007792
 -0.007792
 -0.010339
 -0.010339
 -0.010339
 -0.005246
 -0.005246
 -0.012886
 -0.007792
 -0.000152
 -0.005246
 -0.010339
 -0.002699
 -0.005246
 -0.005246
 -0.012886
 -0.010339
 -0.002699
 -0.005246
 -0.012886
 -0.007792
 -0.002699
 -0.007792
 -0.007792
  0.002395
 -0.007792
 -0.012886
 -0.007792
 -0.002699
 -0.007792
 -0.010339
 -0.010339
 -0.005246
 -0.007792
 -0.012886
 -0.007792
 -0.002699
 -0.005246
 -0.012886
 -0.002699
 -0.005246
 -0.010339
 -0.010339
 -0.002699
 -0.010339
 -0.012886
 -0.005246
 -0.002699
 -0.005246
 -0.015432
 -0.007792
 -0.002699
 -0.007792
 -0.012886
 -0.010339
 -0.005246
 -0.007792
 -0.012886
 -0.010339
 -0.002699
 -0.010339
 -0.012886
 -0.007792
 -0.007792
 -0.012886
 -0.005246
 -0.000152
 -0.005246
 -0.007792
 -0.012886
 -0.007792
 -0.005246
 -0.010339
 -0.010339
 -0.010339
 -0.002699
 -0.010339
 -0.012886
 -0.010339
 -0.000152
 -0.005246
 -0.015432
 -0.005246
 -0.000152
 -0.005246
 -0.012886
 -0.010339
 -0.002699
 -0.010339
 -0.005246
 -0.002699
 -0.007792
 -0.012886
 -0.005246
 -0.002699
 -0.010339
 -0.005246
 -0.000152
 -0.010339
 -0.012886
 -0.010339
 -0.002699
 -0.007792
 -0.012886
 -0.007792
 -0.002699
 -0.010339
 -0.012886
 -0.002699
 -0.010339
 -0.012886
 -0.010339
 -0.002699
 -0.010339
 -0.012886
 -0.012886
 -0.002699
 -0.010339
 -0.012886
 -0.007792
 -0.002699
 -0.005246
 -0.012886
 -0.007792
 -0.002699
 -0.012886
 -0.010339
 -0.002699
 -0.007792
 -0.012886
 -0.007792
 -0.002699
 -0.005246
 -0.010339
 -0.002699
 -0.010339
 -0.012886
 -0.010339
 -0.005246
 -0.005246
 -0.005246
 -0.002699
 -0.010339
 -0.007792
 -0.007792
 -0.005246
 -0.010339
 -0.005246
 -0.002699
 -0.010339
 -0.005246
 -0.005246
 -0.005246
 -0.012886
 -0.007792
 -0.005246
 -0.005246
 -0.015432
 -0.007792
 -0.007792
 -0.007792
 -0.012886
 -0.010339
 -0.002699
 -0.012886
 -0.012886
 -0.010339
 -0.000152
 -0.007792
 -0.010339
 -0.005246
 -0.005246
 -0.012886
 -0.012886
 -0.005246
 -0.005246
 -0.015432
 -0.005246
 -0.002699
 -0.010339
 -0.010339
 -0.005246
 -0.005246
 -0.005246
 -0.010339
 -0.000152
 -0.007792
 -0.012886
 -0.010339
 -0.002699
 -0.007792
 -0.012886
 -0.010339
 -0.000152
 -0.005246
 -0.012886
 -0.007792
 -0.002699
 -0.012886
 -0.012886
 -0.002699
 -0.005246
 -0.012886
 -0.005246
 -0.005246
 -0.007792
 -0.012886
 -0.005246
 -0.002699
 -0.005246
 -0.015432
 -0.012886
 -0.005246
 -0.012886
 -0.012886
 -0.002699
 -0.010339
 -0.010339
 -0.005246
 -0.002699
 -0.012886
 -0.007792
 -0.002699
 -0.005246
 -0.012886
 -0.002699
 -0.005246
 -0.012886
 -0.012886
 -0.002699
 -0.007792
 -0.010339
 -0.002699
 -0.010339
 -0.012886
 -0.005246
 -0.000152
 -0.010339
 -0.012886
 -0.007792
 -0.000152
 -0.002699
 -0.012886
 -0.005246
 -0.005246
 -0.010339
 -0.005246
  0.002395
 -0.007792
 -0.010339
 -0.007792
 -0.002699
 -0.007792
 -0.007792
 -0.012886
 -0.002699
 -0.005246
 -0.012886
 -0.010339
 -0.002699
 -0.010339
 -0.012886
 -0.007792
 -0.000152
 -0.007792
 -0.012886
 -0.010339
 -0.000152
 -0.010339
 -0.012886
 -0.007792
 -0.002699
 -0.005246
 -0.015432
 -0.002699
 -0.010339
 -0.015432
 -0.007792
 -0.002699
 -0.005246
 -0.012886
 -0.010339
 -0.005246
 -0.010339
 -0.012886
 -0.007792
 -0.002699
 -0.005246
 -0.010339
 -0.002699
 -0.005246
 -0.012886
 -0.010339
 -0.002699
 -0.005246
 -0.012886
 -0.007792
 -0.005246
 -0.015432
 -0.010339
 -0.002699
 -0.005246
 -0.012886
 -0.010339
 -0.005246
 -0.005246
 -0.012886
 -0.007792
 -0.002699
 -0.007792
 -0.007792
 -0.002699
 -0.007792
 -0.012886
 -0.010339
 -0.002699
 -0.010339
 -0.012886
 -0.007792
 -0.002699
 -0.007792
 -0.012886
 -0.007792
  0.002395
 -0.010339
 -0.012886
 -0.005246
 -0.002699
 -0.007792
 -0.010339
 -0.007792
 -0.007792
 -0.012886
 -0.010339
 -0.000152
 -0.005246
 -0.012886
 -0.010339
 -0.002699
 -0.012886
 -0.010339
 -0.002699
 -0.010339
 -0.012886
 -0.010339
 -0.000152
 -0.007792
 -0.007792
 -0.002699
 -0.007792
 -0.012886
 -0.005246
 -0.005246
 -0.012886
 -0.007792
 -0.000152
 -0.007792
 -0.010339
 -0.000152
 -0.010339
 -0.012886
 -0.007792
 -0.002699
 -0.010339
 -0.005246
 -0.005246
 -0.010339
 -0.012886
 -0.007792
 -0.002699
 -0.005246
 -0.012886
 -0.007792
 -0.002699
 -0.010339
 -0.015432
 -0.005246
 -0.005246
 -0.012886
 -0.005246
 -0.000152
 -0.010339
 -0.012886
 -0.012886
  0.002395
 -0.005246
 -0.012886
 -0.007792
 -0.000152
 -0.005246
 -0.007792
 -0.000152
 -0.005246
 -0.017979
 -0.007792
 -0.005246
 -0.010339
 -0.012886
 -0.010339
 -0.005246
 -0.005246
 -0.010339
 -0.005246
 -0.000152
 -0.007792
 -0.012886
 -0.002699
 -0.005246
 -0.012886
 -0.007792
 -0.002699
 -0.012886
 -0.012886
 -0.000152
 -0.005246
 -0.010339
 -0.010339
  0.007488
  0.002395
  0.004941
  0.010035
  0.020221
  0.010035
  0.025315
  0.027862
  0.020221
  0.017675
  0.032955
  0.038048
  0.030408
  0.032955
  0.048235
  0.043142
  0.038048
  0.043142
  0.048235
  0.050782
  0.050782
  0.053329
  0.058422
  0.050782
  0.045688
  0.055875
  0.050782
  0.045688
  0.050782
  0.055875
  0.050782
  0.045688
  0.050782
  0.053329
  0.045688
  0.043142
  0.048235
  0.035502
  0.038048
  0.048235
  0.040595
  0.035502
  0.043142
  0.048235
  0.043142
  0.043142
  0.050782
  0.043142
  0.032955
  0.040595
  0.045688
  0.032955
  0.027862
  0.030408
  0.035502
  0.027862
  0.025315
  0.027862
  0.020221
  0.015128
  0.022768
  0.027862
  0.022768
  0.020221
  0.010035
  0.012581
  0.017675
  0.010035
  0.012581
  0.017675
  0.015128
  0.004941
  0.002395
  0.007488
  0.007488
  0.002395
 -0.005246
  0.004941
 -0.000152
 -0.007792
 -0.010339
 -0.015432
 -0.010339
 -0.002699
 -0.005246
 -0.012886
 -0.010339
  0.002395
 -0.007792
 -0.012886
 -0.010339
 -0.002699
 -0.005246
 -0.015432
 -0.012886
 -0.005246
 -0.010339
 -0.005246
 -0.010339
 -0.012886
 -0.002699
 -0.010339
 -0.002699
 -0.010339
 -0.010339
 -0.012886
 -0.005246
 -0.002699
 -0.005246
 -0.012886
 -0.010339
 -0.007792
 -0.002699
 -0.010339
 -0.012886
 -0.010339
 -0.002699
 -0.007792
 -0.012886
 -0.007792
 -0.002699
 -0.007792
 -0.012886
 -0.007792
 -0.002699
 -0.005246
 -0.015432
 -0.005246
  0.002395
 -0.007792
 -0.012886
 -0.007792
 -0.005246
 -0.005246
 -0.012886
 -0.007792
 -0.002699
 -0.007792
 -0.007792
 -0.007792
 -0.002699
 -0.007792
 -0.012886
 -0.002699
 -0.010339
 -0.012886
 -0.005246
 -0.005246
 -0.007792
 -0.012886
 -0.012886
 -0.005246
 -0.030712
 -0.025619
 -0.040899
 -0.038353
 -0.058726
 -0.053633
 -0.068913
 -0.074006
 -0.058726
 -0.048539
 -0.025619
 -0.033259
  0.002395
  0.007488
  0.099169
  0.094076
  0.300358
  0.307998
  0.389493
  0.381852
   0.47608
   0.48372
  0.555028
  0.547388
  0.616149
  0.651802
   0.70783
  0.735843
  0.763857
  0.842805
  0.858085
  0.878458
  0.886098
  0.903925
  0.909019
  0.957406
  0.962499
  0.959953
  0.952313
  0.962499
  0.954859
  0.931939
  0.939579
  0.883552
  0.883552
