5000
1000
  0.027508
  0.028144
  0.028781
  0.027508
  0.027508
  0.027508
  0.028144
  0.028781
  0.027508
  0.039601
  0.029417
  0.027508
  0.026871
  0.028781
    0.0326
  0.047876
  0.036419
  0.037692
  0.037692
  0.036419
   0.04533
  0.039601
  0.037692
  0.036419
  0.046603
  0.038965
   0.04724
  0.038328
  0.038328
  0.039601
  0.047876
  0.037055
  0.047876
  0.038328
  0.035782
  0.037692
  0.037692
  0.028144
  0.035782
  0.028144
  0.029417
  0.026871
  0.037692
  0.028781
  0.029417
  0.028781
  0.026871
  0.018596
  0.019869
  0.019233
  0.018596
  0.018596
  0.029417
  0.019233
  0.017323
   0.01796
   0.01796
  0.019233
  0.010322
  0.009049
  0.009685
  0.009049
  0.007776
  0.016687
  0.008412
  0.009049
  0.008412
  0.007139
  0.009049
  0.010958
  0.000137
 -0.001136
 -0.000499
 -0.000499
  0.000137
  0.007139
 -0.000499
 -0.000499
 -0.000499
 -0.001772
 -0.010683
  -0.00941
 -0.010047
 -0.011956
  -0.01132
 -0.010047
 -0.010683
 -0.000499
  -0.00941
  -0.00941
 -0.010683
 -0.010683
 -0.010683
  -0.00941
 -0.010683
 -0.011956
 -0.010047
 -0.010047
  -0.00941
 -0.008774
 -0.010683
 -0.010047
 -0.010047
 -0.010047
 -0.010047
  -0.01132
 -0.010047
 -0.010047
 -0.010683
 -0.010683
 -0.010683
 -0.010047
  -0.00941
 -0.010683
 -0.010047
  -0.00941
 -0.010047
 -0.010683
 -0.010683
 -0.010683
 -0.010047
  -0.01132
 -0.010683
  -0.00941
 -0.010683
 -0.010683
 -0.010683
  -0.00941
 -0.010047
  -0.01132
 -0.010047
 -0.008774
 -0.010683
 -0.010683
  -0.01132
  -0.00941
 -0.010047
  -0.01132
  -0.01132
  -0.00941
 -0.010047
  -0.01132
 -0.010683
 -0.010047
 -0.010047
  -0.01132
 -0.010047
 -0.008774
  -0.00941
 -0.010047
 -0.010683
 -0.010047
 -0.008774
 -0.010683
 -0.010047
 -0.008774
 -0.010683
 -0.010683
 -0.010683
 -0.010047
 -0.010683
 -0.010683
  -0.00941
 -0.010683
 -0.010683
 -0.010683
 -0.010047
  -0.01132
 -0.010683
 -0.010047
 -0.010047
 -0.010683
  -0.01132
 -0.010047
 -0.008774
 -0.010683
  -0.01132
 -0.010683
 -0.010047
  -0.00941
  -0.01132
 -0.008774
 -0.010683
  -0.01132
 -0.010683
 -0.008774
 -0.010683
 -0.010683
  -0.00941
 -0.010683
  -0.01132
  -0.00941
  -0.00941
 -0.010683
 -0.011956
 -0.010683
 -0.010047
 -0.010047
 -0.010683
 -0.010047
 -0.010047
 -0.010683
 -0.010683
 -0.010047
  -0.00941
 -0.010683
 -0.010683
 -0.010683
 -0.008774
 -0.010683
 -0.010683
 -0.010683
 -0.010047
 -0.008774
 -0.010683
 -0.011956
 -0.010047
 -0.010047
 -0.010047
 -0.010683
 -0.010683
 -0.010683
 -0.010683
 -0.010047
 -0.008774
 -0.010683
  -0.01132
 -0.010683
 -0.010683
 -0.010683
 -0.010683
 -0.010683
  -0.00941
 -0.010683
  -0.01132
 -0.010047
 -0.010047
 -0.010683
 -0.010683
 -0.010047
 -0.008774
 -0.010683
 -0.010683
 -0.010047
 -0.010047
  -0.01132
 -0.010683
  -0.00941
 -0.010683
  -0.01132
 -0.010047
 -0.010047
 -0.010047
 -0.010683
 -0.010047
 -0.010683
 -0.010047
 -0.010047
 -0.008774
 -0.010683
 -0.010047
  -0.01132
  -0.00941
  -0.01132
  -0.01132
 -0.010683
  -0.00941
  -0.01132
 -0.010683
 -0.010047
 -0.010047
  -0.01132
  -0.01132
  -0.00941
 -0.010047
  -0.01132
 -0.010683
  -0.00941
  -0.01132
 -0.010683
 -0.010047
 -0.010047
  -0.01132
 -0.010683
 -0.010047
 -0.010683
  -0.01132
 -0.008774
  -0.00941
 -0.010683
 -0.010683
 -0.008774
 -0.010683
  -0.01132
 -0.010047
 -0.010683
 -0.010683
 -0.010683
 -0.008774
 -0.010683
 -0.010683
 -0.010047
 -0.008774
 -0.010683
 -0.011956
 -0.010047
  -0.00941
  -0.00941
 -0.010047
 -0.010683
 -0.010047
  -0.00941
  -0.00941
 -0.008774
 -0.010683
 -0.010683
 -0.010683
 -0.010047
 -0.010683
 -0.011956
 -0.010683
  -0.00941
 -0.010683
  -0.01132
 -0.010047
  -0.00941
  -0.01132
  -0.01132
  -0.00941
 -0.010047
 -0.010683
 -0.010683
 -0.008774
 -0.010047
  -0.01132
 -0.010683
 -0.010683
  -0.00941
 -0.010683
 -0.010047
  -0.01132
 -0.010047
 -0.010683
  -0.01132
 -0.010683
  -0.00941
 -0.010683
  -0.00941
 -0.010683
  -0.01132
  -0.00941
  -0.01132
 -0.010683
  -0.01132
 -0.010683
  -0.00941
 -0.010047
 -0.012593
  -0.01132
 -0.010047
  -0.00941
 -0.010047
 -0.010683
  -0.00941
 -0.010047
 -0.010047
  -0.00941
  -0.01132
 -0.010683
  -0.00941
 -0.010047
 -0.010047
 -0.011956
 -0.010047
 -0.010683
 -0.008774
 -0.010683
  -0.01132
 -0.010683
 -0.010047
 -0.010047
 -0.010683
 -0.010047
 -0.011956
 -0.010683
 -0.010047
 -0.020231
 -0.012593
 -0.020868
 -0.011956
  -0.00941
 -0.014502
 -0.017048
 -0.010683
 -0.003045
  -0.00941
  0.004593
  0.007776
  0.009049
  0.000774
  0.008412
  0.007139
   0.01796
  0.018596
  0.017323
  0.008412
  0.017323
   0.01796
  0.019233
   0.01796
  0.016687
  0.019233
  0.017323
  0.019869
  0.018596
  0.017323
  0.018596
  0.019869
  0.017323
  0.018596
  0.018596
  0.027508
  0.028144
  0.026871
  0.026871
  0.028144
  0.027508
  0.028144
  0.028781
  0.027508
  0.028144
  0.028144
  0.027508
  0.022415
  0.017323
  0.019233
  0.024962
  0.019233
  0.018596
   0.01796
   0.01796
  0.019233
  0.027508
  0.018596
  0.017323
   0.01796
  0.019233
  0.008412
  0.007139
  0.009685
  0.018596
  0.007776
  0.008412
  0.009049
  0.008412
 -0.000499
 -0.000499
  0.000774
  0.007776
 -0.001136
  0.000774
 -0.010047
  -0.01132
 -0.010683
  0.000774
 -0.010683
 -0.010683
 -0.010047
 -0.010047
  -0.00941
 -0.010047
  -0.00941
 -0.010683
 -0.011956
 -0.010683
 -0.010047
 -0.010047
  -0.01132
 -0.010683
  -0.00941
 -0.010683
 -0.010683
 -0.010683
 -0.008774
 -0.010683
 -0.010683
  -0.01132
 -0.010683
  -0.00941
 -0.010047
 -0.010683
 -0.010683
 -0.010047
 -0.010683
  -0.01132
 -0.010047
 -0.008774
 -0.010683
 -0.010683
 -0.010683
  -0.00941
 -0.010683
  -0.01132
  -0.00941
 -0.010683
 -0.010683
 -0.010047
  -0.01132
 -0.010047
 -0.010047
 -0.010683
  -0.01132
 -0.010683
  -0.00941
 -0.010683
  -0.01132
 -0.010047
 -0.008774
 -0.010683
 -0.010683
 -0.010047
  -0.00941
 -0.010683
 -0.010683
 -0.010683
 -0.010047
 -0.008774
 -0.010047
 -0.010683
 -0.010683
 -0.008774
  -0.00941
 -0.010047
 -0.011956
 -0.010683
 -0.010683
 -0.010047
 -0.010683
  0.005866
 -0.020868
 -0.000499
 -0.010683
 -0.000499
 -0.019595
 -0.002409
 -0.020868
 -0.039963
 -0.041236
 -0.069243
 -0.048874
 -0.076881
 -0.048874
 -0.145625
 -0.088338
  -0.29075
 -0.118254
 -0.204184
 -0.165993
 -0.197182
 -0.189544
 -0.167266
 -0.185089
 -0.133531
 -0.190181
 -0.136077
  -0.17745
 -0.130348
  -0.21946
 -0.103615
 -0.115072
 -0.069243
 -0.097249
 -0.059695
 -0.104888
 -0.057785
 -0.058422
 -0.048238
 -0.047601
 -0.029142
 -0.010683
 -0.010683
  0.049149
  0.027508
  0.036419
  0.028144
  0.096888
  0.047876
  0.086067
  0.049786
  0.135715
  0.076519
   0.14399
  0.077792
  0.163085
  0.083521
  0.221008
  0.095615
  0.210824
  0.119166
  0.173906
  0.145263
  0.146536
  0.178998
  0.140807
  0.177725
  0.108982
  0.205095
  0.133169
  0.208278
  0.073973
  0.045967
  0.046603
  0.019869
  0.008412
 -0.029779
  0.009049
 -0.057149
 -0.022141
 -0.020868
 -0.020231
 -0.107434
 -0.050147
 -0.049511
 -0.030415
 -0.029142
 -0.028506
 -0.031688
 -0.029142
 -0.029142
 -0.030415
 -0.030415
 -0.031052
 -0.029779
 -0.029142
 -0.030415
 -0.031688
 -0.029779
 -0.029142
 -0.030415
 -0.031052
 -0.029779
 -0.029779
 -0.028506
 -0.029142
 -0.029779
 -0.031052
 -0.029142
 -0.028506
 -0.029142
 -0.030415
 -0.030415
 -0.029142
 -0.028506
 -0.030415
 -0.031052
 -0.030415
 -0.030415
 -0.029142
 -0.029142
 -0.031688
 -0.030415
 -0.028506
 -0.030415
 -0.029779
 -0.031052
 -0.029779
 -0.028506
 -0.029779
 -0.031052
 -0.029142
 -0.030415
 -0.029142
 -0.029779
 -0.030415
 -0.029779
 -0.030415
 -0.028506
 -0.030415
 -0.029779
 -0.029779
 -0.028506
 -0.029142
 -0.031052
 -0.030415
 -0.029142
 -0.029142
 -0.029779
 -0.031052
 -0.030415
 -0.029142
 -0.029142
 -0.029779
 -0.031052
 -0.028506
 -0.030415
 -0.031052
 -0.029779
 -0.030415
 -0.028506
 -0.029142
 -0.031052
 -0.029779
 -0.029142
 -0.029142
 -0.039327
 -0.029779
 -0.030415
 -0.029779
 -0.029142
 -0.031688
   -0.0406
 -0.029142
 -0.030415
 -0.031688
 -0.029779
 -0.019595
 -0.020231
 -0.020868
 -0.020868
 -0.019595
 -0.018958
 -0.021504
 -0.029779
 -0.019595
 -0.018958
 -0.019595
 -0.021504
 -0.020231
 -0.018958
 -0.020231
 -0.011956
 -0.010047
 -0.010683
 -0.017048
 -0.020868
 -0.020231
 -0.019595
 -0.018322
 -0.010683
  -0.01132
 -0.010047
 -0.008774
 -0.010047
 -0.022141
  -0.01132
 -0.018958
 -0.010047
 -0.019595
 -0.011956
 -0.020868
 -0.010047
 -0.010683
 -0.010047
 -0.020868
 -0.010683
 -0.018958
 -0.010683
 -0.022141
 -0.010683
 -0.018322
 -0.010047
 -0.021504
 -0.010683
 -0.010683
 -0.000499
 -0.010683
 -0.003045
 -0.004955
 -0.008774
 -0.003045
 -0.008137
 -0.003045
 -0.010683
 -0.001772
  0.000137
  0.007139
 -0.001772
  0.007776
  0.009685
  0.009049
 -0.001136
  0.009049
  0.009685
  0.008412
  0.009049
  0.019233
  0.019233
  0.018596
  0.019233
  0.019233
  0.009049
  0.017323
  0.019233
  0.019233
  0.016687
  0.018596
  0.018596
  0.017323
  0.035146
  0.027508
  0.029417
  0.027508
  0.027508
  0.030054
  0.026871
  0.027508
  0.028781
  0.029417
  0.034509
  0.027508
  0.027508
  0.029417
  0.027508
  0.050422
  0.038328
  0.037055
  0.036419
  0.036419
  0.036419
   0.04724
  0.038328
  0.036419
  0.037692
   0.04724
  0.035782
   0.04724
  0.038965
  0.037692
  0.037055
  0.047876
  0.038965
   0.04724
  0.035782
  0.037692
  0.037692
  0.037055
  0.028144
  0.038965
  0.027508
  0.026871
  0.028781
  0.039601
  0.029417
  0.026235
  0.027508
  0.028781
  0.019233
  0.019233
  0.017323
  0.017323
  0.021779
  0.023052
  0.018596
  0.017323
  0.019233
  0.019869
  0.018596
  0.008412
  0.008412
  0.009049
  0.009049
  0.007776
  0.017323
  0.009049
  0.010322
  0.007776
  0.007139
  0.007139
  0.008412
 -0.000499
 -0.001136
 -0.003045
 -0.001772
 -0.000499
  0.009049
 -0.001136
 -0.001136
 -0.001772
 -0.001136
 -0.010047
 -0.010047
 -0.010683
 -0.010683
 -0.010047
 -0.008774
 -0.010683
 -0.000499
 -0.010683
 -0.008774
 -0.010047
 -0.010047
  -0.01132
 -0.010683
 -0.010047
 -0.010683
 -0.011956
 -0.010683
 -0.008774
  -0.00941
  -0.01132
 -0.010683
 -0.010047
 -0.010683
 -0.010683
 -0.010683
 -0.010683
 -0.010047
 -0.010683
  -0.01132
 -0.010047
 -0.008774
 -0.010683
 -0.010683
 -0.010683
  -0.00941
  -0.00941
 -0.010047
  -0.01132
  -0.01132
 -0.010047
 -0.010047
 -0.011956
 -0.010683
 -0.008774
 -0.010047
 -0.010683
 -0.010683
 -0.010047
 -0.010683
 -0.010683
 -0.010683
 -0.008774
 -0.011956
 -0.010683
  -0.01132
 -0.008774
 -0.010683
 -0.010683
 -0.011956
  -0.00941
 -0.008774
 -0.010047
 -0.010683
  -0.00941
 -0.010683
 -0.010047
 -0.011956
 -0.010047
 -0.008774
 -0.010683
 -0.010683
 -0.010047
 -0.010047
 -0.010683
 -0.010683
 -0.010047
 -0.010047
  -0.01132
  -0.00941
 -0.010047
 -0.011956
  -0.01132
  -0.00941
  -0.01132
  -0.00941
  -0.00941
 -0.010047
 -0.010683
 -0.010047
 -0.011956
  -0.01132
  -0.01132
 -0.008774
 -0.010047
 -0.010047
 -0.008774
 -0.010683
 -0.011956
 -0.010683
 -0.010683
  -0.01132
  -0.00941
 -0.008774
 -0.010047
 -0.010683
 -0.010683
 -0.010047
  -0.01132
 -0.010047
 -0.008774
 -0.010047
 -0.010047
  -0.00941
  -0.01132
  -0.01132
 -0.010047
  -0.00941
 -0.010683
 -0.010047
 -0.010683
 -0.010047
 -0.010683
  -0.01132
 -0.010047
  -0.00941
 -0.010683
  -0.01132
 -0.010683
  -0.00941
  -0.01132
  -0.01132
 -0.010683
  -0.00941
  -0.01132
  -0.01132
 -0.008774
 -0.010683
  -0.01132
 -0.010683
 -0.010683
 -0.010047
  -0.01132
  -0.00941
  -0.00941
 -0.010047
 -0.010683
 -0.010683
 -0.010047
 -0.010047
  -0.01132
 -0.010683
 -0.010047
 -0.010683
  -0.01132
 -0.010683
 -0.008774
 -0.010683
 -0.010047
  -0.00941
 -0.010683
 -0.010683
 -0.010047
  -0.00941
 -0.008774
 -0.010683
 -0.010047
 -0.008137
 -0.010047
 -0.011956
 -0.010683
  -0.00941
  -0.00941
  -0.01132
 -0.010047
 -0.010047
 -0.010683
 -0.011956
 -0.010683
 -0.008774
 -0.010683
 -0.010683
 -0.010047
 -0.010047
 -0.010047
  -0.01132
 -0.010683
 -0.010047
 -0.010683
 -0.011956
 -0.010683
 -0.010683
 -0.010047
  -0.01132
 -0.010047
  -0.00941
 -0.010683
  -0.01132
 -0.010683
 -0.008774
 -0.010683
 -0.010683
 -0.008774
 -0.010683
 -0.010683
 -0.010683
 -0.008774
 -0.010683
 -0.010683
 -0.010683
  -0.00941
  -0.01132
 -0.010683
 -0.008774
 -0.010047
 -0.010683
 -0.010047
 -0.010047
 -0.010683
  -0.00941
 -0.010047
 -0.010047
  -0.01132
 -0.010683
 -0.010047
 -0.010683
 -0.011956
  -0.00941
 -0.010047
 -0.010683
 -0.010047
 -0.008774
 -0.010047
 -0.010683
 -0.010683
 -0.010683
 -0.008774
 -0.011956
 -0.010683
  -0.00941
 -0.010683
 -0.010683
 -0.010683
  -0.00941
 -0.010047
 -0.010683
 -0.010683
 -0.008774
 -0.010047
 -0.010683
 -0.010047
  -0.00941
 -0.010047
  -0.01132
  -0.00941
 -0.010047
 -0.010683
 -0.011956
 -0.010683
 -0.010047
 -0.010683
  -0.01132
 -0.010683
  -0.00941
 -0.010047
  -0.01132
 -0.010047
 -0.010047
 -0.010683
 -0.011956
 -0.010047
 -0.008774
 -0.010047
  -0.01132
 -0.010683
  -0.00941
 -0.010047
  -0.01132
 -0.010047
  -0.00941
 -0.010047
  -0.01132
 -0.010683
 -0.008774
 -0.010683
 -0.010683
 -0.010683
 -0.010047
 -0.010683
 -0.010683
  -0.00941
 -0.010047
 -0.010683
 -0.010683
  -0.00941
 -0.010047
 -0.011956
 -0.010047
 -0.010683
 -0.010047
 -0.010047
 -0.010683
 -0.010683
 -0.008774
 -0.010683
 -0.011956
  -0.00941
 -0.017685
 -0.012593
 -0.018958
 -0.012593
  -0.00941
 -0.010683
 -0.020231
  -0.00941
  -0.01132
 -0.002409
  -0.01132
  0.008412
  0.010322
  0.009049
  0.000137
  0.009049
  0.009049
  0.017323
  0.018596
   0.01796
  0.006503
   0.01796
  0.019869
  0.019233
  0.017323
  0.017323
   0.01796
  0.019233
  0.017323
   0.01796
  0.018596
  0.018596
   0.01796
   0.01796
  0.018596
  0.018596
  0.027508
  0.026871
  0.028144
  0.028781
  0.028144
  0.026871
  0.027508
  0.027508
  0.028781
  0.027508
  0.026871
  0.028781
  0.019233
  0.017323
  0.017323
  0.030054
  0.018596
  0.017323
  0.019233
  0.019869
  0.019233
  0.026871
  0.017323
   0.01796
  0.018596
  0.018596
  0.008412
  0.008412
  0.008412
  0.019869
  0.008412
  0.009049
  0.009049
  0.009049
 -0.000499
 -0.000499
 -0.000499
  0.009049
 -0.000499
 -0.001136
 -0.010683
 -0.011956
  -0.01132
  0.000137
 -0.010683
 -0.010683
  -0.01132
 -0.010683
 -0.010047
 -0.010047
 -0.010683
 -0.010683
 -0.008774
  -0.00941
 -0.010683
 -0.010683
 -0.010047
  -0.00941
  -0.01132
 -0.010047
 -0.010047
  -0.00941
 -0.010683
 -0.010683
  -0.00941
 -0.010047
 -0.010683
 -0.010683
 -0.010047
  -0.01132
 -0.010683
 -0.010683
 -0.010683
 -0.008774
 -0.010047
 -0.010683
  -0.01132
 -0.010047
  -0.00941
  -0.00941
  -0.00941
  -0.01132
 -0.010683
  -0.00941
 -0.010683
 -0.010047
 -0.010047
 -0.010047
 -0.008137
 -0.010683
 -0.010683
 -0.010047
  -0.01132
 -0.010047
  -0.01132
 -0.010047
  -0.00941
 -0.010683
 -0.011956
 -0.010683
 -0.010047
 -0.010683
 -0.010683
  -0.00941
  -0.00941
 -0.010047
  -0.01132
 -0.010047
 -0.010047
 -0.010683
  -0.00941
 -0.008774
 -0.010683
 -0.010683
 -0.010683
 -0.008137
 -0.010047
   0.00523
 -0.020868
 -0.000499
 -0.010047
 -0.002409
 -0.020868
 -0.000499
 -0.020868
 -0.041236
   -0.0406
 -0.069243
 -0.055876
 -0.066697
 -0.102978
 -0.107434
  -0.23601
 -0.153263
 -0.190181
 -0.151353
 -0.225189
 -0.153263
  -0.21946
 -0.138623
 -0.201638
 -0.119527
 -0.202274
 -0.125893
 -0.183179
 -0.127166
 -0.222006
 -0.098522
 -0.116981
 -0.066697
  -0.09534
 -0.057149
  -0.10807
 -0.058422
 -0.055876
 -0.049511
 -0.049511
 -0.029142
 -0.010047
 -0.010683
   0.04724
  0.028781
  0.037055
  0.026871
  0.096251
  0.048513
  0.087977
  0.047876
  0.134442
  0.081611
  0.125531
  0.115983
  0.117893
  0.177089
  0.126804
  0.189182
  0.130623
  0.193002
  0.113437
   0.18409
  0.119166
  0.207641
  0.117893
  0.189182
  0.096888
  0.219099
  0.126167
  0.212097
  0.068881
  0.045967
  0.047876
  0.019869
  0.007776
 -0.029142
  0.009049
 -0.059695
 -0.021504
 -0.021504
 -0.020231
 -0.106797
  -0.05142
 -0.050147
 -0.028506
 -0.029142
 -0.029142
 -0.031052
 -0.030415
 -0.029142
 -0.029779
 -0.029779
 -0.030415
 -0.029779
 -0.029142
 -0.029142
 -0.030415
 -0.031052
 -0.029142
 -0.029142
 -0.029142
 -0.030415
 -0.031052
 -0.029142
 -0.030415
 -0.031052
 -0.030415
 -0.030415
 -0.029142
 -0.029779
 -0.030415
 -0.029142
 -0.027869
 -0.030415
 -0.029779
 -0.030415
 -0.028506
 -0.029142
 -0.031052
 -0.029142
 -0.029142
 -0.029142
 -0.031052
 -0.029779
 -0.029142
 -0.029142
 -0.030415
 -0.029779
 -0.029779
 -0.030415
 -0.031688
 -0.027233
 -0.030415
 -0.031688
 -0.029142
 -0.031052
 -0.031052
 -0.029142
 -0.028506
 -0.029142
 -0.030415
 -0.029779
 -0.029779
 -0.031688
 -0.029142
 -0.030415
 -0.030415
 -0.029779
 -0.027869
 -0.030415
 -0.031688
 -0.029779
 -0.029779
 -0.029142
 -0.029779
 -0.028506
 -0.030415
 -0.029779
 -0.029142
 -0.030415
 -0.030415
 -0.031052
 -0.029779
 -0.030415
 -0.029779
 -0.039963
 -0.030415
 -0.030415
 -0.031052
 -0.031052
 -0.030415
  -0.03869
 -0.028506
 -0.029779
 -0.030415
 -0.030415
 -0.020231
 -0.020868
 -0.022141
 -0.020231
 -0.020231
 -0.020868
 -0.028506
 -0.022141
 -0.019595
 -0.021504
 -0.022141
 -0.018322
 -0.020868
 -0.021504
 -0.020868
  -0.00941
  -0.01132
  -0.01132
 -0.018958
 -0.018958
 -0.017048
 -0.018322
 -0.019595
 -0.010683
  -0.00941
 -0.010047
  -0.01132
  -0.00941
 -0.020868
 -0.010047
 -0.020231
  -0.01132
 -0.021504
 -0.010683
 -0.019595
 -0.010683
 -0.011956
 -0.010683
 -0.020231
  -0.01132
 -0.020868
 -0.010683
 -0.018322
 -0.013229
 -0.016412
 -0.017048
 -0.013229
 -0.010047
 -0.003682
 -0.008774
 -0.001772
 -0.010683
 -0.003045
 -0.008774
 -0.000499
 -0.008774
 -0.002409
 -0.010047
 -0.000499
 -0.001136
  0.007139
 -0.000499
  0.009049
  0.009049
  0.008412
 -0.001136
  0.009685
  0.010322
  0.009049
  0.007776
  0.019233
  0.019233
  0.019233
  0.018596
  0.019869
  0.008412
  0.016687
  0.018596
   0.01796
  0.018596
  0.016687
  0.018596
  0.019869
  0.037055
  0.027508
  0.027508
  0.028781
  0.029417
  0.027508
  0.028144
  0.028781
  0.028144
  0.035782
  0.028781
  0.029417
  0.028144
  0.028144
  0.027508
  0.055514
  0.038328
  0.035782
  0.037055
  0.037692
  0.037055
  0.045967
  0.037692
  0.037692
  0.038328
  0.045967
  0.037055
  0.048513
  0.038965
  0.037055
  0.038965
  0.047876
  0.037692
  0.047876
  0.038965
  0.037692
  0.036419
  0.037055
  0.028144
  0.037055
  0.026235
  0.027508
  0.028781
  0.036419
  0.027508
  0.028144
  0.030054
  0.021779
  0.017323
   0.01796
  0.019869
  0.018596
  0.026871
  0.018596
  0.019869
   0.01796
  0.016687
  0.017323
  0.019233
  0.008412
  0.008412
  0.009049
  0.009049
  0.007139
   0.01796
  0.009685
  0.007776
  0.008412
  0.008412
  0.009049
  0.008412
 -0.001772
 -0.000499
 -0.000499
 -0.000499
 -0.000499
  0.009049
  0.000137
 -0.000499
 -0.002409
 -0.001136
  -0.00941
 -0.010683
  -0.01132
 -0.010683
  -0.00941
 -0.010683
 -0.005591
 -0.005591
 -0.008137
 -0.010683
 -0.010683
 -0.010683
 -0.008774
  -0.01132
 -0.010683
 -0.010683
 -0.008774
 -0.010047
  -0.01132
 -0.010047
 -0.010683
 -0.011956
  -0.00941
 -0.010047
 -0.010683
 -0.010683
  -0.01132
 -0.008774
 -0.010047
  -0.01132
 -0.010047
 -0.010047
  -0.00941
  -0.01132
 -0.010683
 -0.010047
 -0.011956
 -0.011956
 -0.008774
 -0.010683
  -0.01132
 -0.010683
 -0.010047
  -0.01132
 -0.008774
 -0.010683
  -0.01132
  -0.00941
 -0.008774
 -0.010047
 -0.010683
 -0.010683
 -0.008774
 -0.010047
 -0.010683
  -0.00941
 -0.010683
  -0.01132
 -0.010047
 -0.010683
 -0.010047
 -0.010683
 -0.010683
  -0.00941
 -0.008774
 -0.010683
  -0.01132
  -0.00941
 -0.010047
 -0.010683
 -0.010047
 -0.008774
 -0.010683
  -0.01132
 -0.010047
 -0.010683
 -0.011956
 -0.010683
 -0.010047
 -0.010047
 -0.010047
  -0.01132
 -0.010683
 -0.008774
 -0.011956
 -0.010683
 -0.008774
 -0.010683
  -0.01132
 -0.010047
 -0.008774
 -0.010047
 -0.010683
 -0.011956
 -0.010047
 -0.010047
  -0.01132
 -0.008774
  -0.00941
 -0.010683
 -0.011956
 -0.010047
  -0.00941
 -0.008774
 -0.010683
 -0.010683
 -0.010683
 -0.010047
 -0.010683
 -0.010683
 -0.010047
 -0.008774
 -0.010047
 -0.010683
 -0.010683
 -0.010683
 -0.010047
 -0.010683
  -0.01132
  -0.01132
 -0.010047
 -0.010683
 -0.010683
 -0.010047
 -0.008774
 -0.010683
  -0.01132
  -0.00941
  -0.00941
 -0.010047
  -0.01132
 -0.010683
 -0.010047
 -0.010047
  -0.01132
  -0.00941
  -0.01132
 -0.010683
 -0.010683
 -0.008774
 -0.010683
 -0.011956
 -0.010047
 -0.010047
 -0.010047
  -0.01132
 -0.010047
 -0.008774
  -0.00941
 -0.011956
 -0.010683
  -0.00941
 -0.008774
  -0.01132
  -0.00941
 -0.010683
 -0.008774
 -0.010683
  -0.00941
 -0.010683
 -0.010047
 -0.010683
  -0.00941
 -0.010683
  -0.01132
 -0.010047
 -0.010047
 -0.010683
 -0.010047
 -0.010047
 -0.010047
 -0.010047
 -0.011956
 -0.010047
  -0.00941
 -0.010683
  -0.01132
 -0.010683
  -0.00941
 -0.010683
 -0.010047
 -0.010683
 -0.010683
 -0.010047
 -0.010683
 -0.010683
 -0.010683
 -0.010047
  -0.00941
 -0.010683
 -0.011956
 -0.010047
 -0.008774
 -0.010047
 -0.010683
 -0.010683
 -0.010683
 -0.010047
 -0.010683
 -0.010683
 -0.010683
 -0.010047
  -0.01132
  -0.00941
  -0.00941
 -0.010047
  -0.01132
 -0.008774
  -0.00941
 -0.010683
 -0.010683
 -0.010047
 -0.010683
 -0.010683
 -0.010047
 -0.010047
 -0.008774
 -0.010683
  -0.00941
  -0.01132
 -0.010683
  -0.01132
 -0.010683
 -0.010683
 -0.010683
  -0.00941
  -0.00941
 -0.010683
 -0.010047
 -0.010047
 -0.010683
 -0.011956
 -0.008774
 -0.008774
 -0.010047
  -0.01132
 -0.010683
 -0.010683
  -0.00941
 -0.011956
 -0.010683
  -0.00941
 -0.010683
  -0.01132
  -0.01132
 -0.010047
 -0.010683
 -0.011956
 -0.010683
 -0.008774
 -0.010683
  -0.01132
 -0.010683
 -0.010683
  -0.00941
 -0.010683
 -0.010683
 -0.010683
 -0.010683
 -0.010683
 -0.010683
 -0.010683
 -0.008774
 -0.010683
  -0.00941
 -0.010047
  -0.00941
 -0.010047
 -0.010683
 -0.010047
 -0.010047
 -0.008774
 -0.010047
 -0.010683
 -0.010683
 -0.008774
 -0.010047
 -0.010683
  -0.01132
 -0.010047
 -0.010683
 -0.010683
  -0.00941
  -0.00941
 -0.010047
 -0.010683
 -0.010683
  -0.00941
 -0.010683
  -0.01132
  -0.00941
 -0.010683
 -0.010683
 -0.010683
 -0.010683
 -0.008774
 -0.010683
  -0.01132
 -0.010047
 -0.008774
 -0.010047
  -0.01132
 -0.010683
 -0.008774
 -0.010683
 -0.010047
 -0.010683
 -0.019595
  -0.00941
 -0.020231
 -0.011956
  -0.00941
 -0.010047
 -0.020231
  -0.01132
 -0.010683
 -0.000499
 -0.010047
  0.007776
  0.009049
  0.009049
 -0.002409
  0.008412
  0.009685
  0.017323
  0.016687
  0.017323
  0.009049
  0.018596
  0.017323
   0.01796
  0.018596
   0.01796
  0.016687
  0.018596
  0.019233
  0.018596
   0.01796
  0.019233
  0.018596
  0.016687
  0.019233
  0.026871
  0.028144
  0.026871
  0.027508
  0.029417
  0.028781
  0.026235
  0.027508
  0.029417
  0.028144
  0.026871
  0.027508
  0.028144
  0.017323
  0.016687
   0.01796
  0.028144
  0.019233
  0.019869
  0.019233
  0.019233
  0.017323
  0.029417
  0.018596
  0.018596
  0.016687
  0.019233
  0.009049
  0.009049
  0.007139
   0.01796
  0.008412
  0.008412
  0.007139
  0.008412
  0.000137
 -0.000499
 -0.000499
  0.005866
   0.00141
 -0.006864
 -0.010683
 -0.010683
 -0.001136
 -0.007501
 -0.010683
 -0.010683
 -0.010047
 -0.010047
 -0.010683
 -0.010683
  -0.00941
 -0.010047
  -0.01132
 -0.010047
  -0.00941
 -0.010047
  -0.01132
 -0.010683
  -0.00941
  -0.00941
  -0.00941
  -0.00941
 -0.010047
 -0.011956
 -0.010683
 -0.008137
  -0.00941
  -0.01132
  -0.00941
 -0.010047
 -0.010047
 -0.011956
 -0.010047
  -0.00941
 -0.010047
  -0.01132
 -0.010683
 -0.008774
 -0.010683
 -0.011956
 -0.010683
 -0.010047
  -0.00941
 -0.010683
 -0.010047
 -0.010047
 -0.010047
  -0.01132
 -0.010047
 -0.010047
 -0.010683
  -0.01132
  -0.01132
 -0.010683
 -0.010047
 -0.010683
 -0.010683
  -0.00941
 -0.010047
 -0.010683
 -0.010683
 -0.008774
 -0.010047
 -0.010683
 -0.010683
 -0.010683
 -0.010047
 -0.010683
 -0.010683
  -0.01132
 -0.010047
 -0.010047
  -0.01132
  -0.01132
  -0.00941
 -0.010047
 -0.010047
  0.007139
 -0.020231
  0.000137
 -0.008774
  -0.00941
 -0.010047
 -0.013229
 -0.034871
 -0.039963
 -0.064151
  -0.05142
 -0.073062
 -0.050784
 -0.141805
 -0.090884
 -0.281839
   -0.1208
 -0.202274
 -0.146898
 -0.231554
 -0.148807
 -0.222643
  -0.13544
 -0.202274
 -0.117618
 -0.202911
 -0.125256
 -0.183815
 -0.125893
 -0.223279
 -0.096613
 -0.116981
 -0.069243
 -0.097886
 -0.057785
 -0.105524
 -0.057785
 -0.058422
 -0.046965
 -0.048238
 -0.030415
 -0.010047
 -0.008774
  0.046603
  0.028144
  0.035146
  0.058697
  0.066972
   0.07461
  0.059333
  0.117256
  0.084794
  0.136988
   0.08543
   0.15672
   0.08925
  0.214007
   0.10007
  0.207641
   0.11662
  0.202549
  0.105799
  0.188546
   0.11471
  0.212097
   0.11662
  0.191729
  0.094342
  0.221008
  0.125531
  0.210187
  0.065699
  0.047876
  0.045967
  0.017323
  0.008412
 -0.029142
  0.009049
 -0.060968
 -0.022777
 -0.020868
 -0.020868
 -0.107434
 -0.050147
 -0.049511
 -0.029142
 -0.030415
 -0.029779
 -0.028506
 -0.029779
 -0.031052
 -0.031052
 -0.028506
 -0.029779
 -0.030415
 -0.029779
 -0.029142
 -0.029142
 -0.031052
 -0.029142
 -0.029779
 -0.029779
 -0.031052
 -0.030415
 -0.028506
 -0.030415
 -0.031052
 -0.030415
 -0.030415
 -0.029142
 -0.029779
 -0.031688
 -0.029142
 -0.028506
 -0.029142
 -0.030415
 -0.029779
 -0.029142
 -0.029779
 -0.031688
 -0.030415
 -0.029142
 -0.029779
 -0.031052
 -0.029779
 -0.028506
 -0.030415
 -0.031688
 -0.029779
 -0.029142
 -0.029142
 -0.031688
 -0.029142
 -0.029142
 -0.029779
 -0.030415
 -0.030415
 -0.029142
 -0.030415
 -0.030415
 -0.027869
 -0.029142
 -0.030415
 -0.029142
 -0.029142
 -0.029779
 -0.031688
 -0.030415
 -0.029142
 -0.029142
 -0.030415
 -0.029779
 -0.031052
 -0.030415
 -0.030415
 -0.031052
 -0.029142
 -0.029779
 -0.030415
 -0.029779
 -0.029142
 -0.029779
 -0.031052
 -0.030415
 -0.029142
 -0.029142
 -0.041236
 -0.031052
 -0.029142
 -0.030415
 -0.031688
 -0.033598
 -0.032961
 -0.031052
 -0.031052
 -0.029779
 -0.020868
 -0.018958
 -0.020868
 -0.020868
 -0.018958
 -0.019595
 -0.020868
 -0.030415
 -0.018958
 -0.020231
 -0.021504
 -0.020868
 -0.020868
 -0.020231
 -0.020868
 -0.020868
 -0.010683
 -0.010047
 -0.010683
 -0.019595
 -0.018958
 -0.017685
 -0.018958
 -0.020868
 -0.010683
 -0.010047
  -0.01132
 -0.011956
  -0.01132
 -0.020868
  -0.00941
 -0.020868
 -0.010683
 -0.020868
 -0.010047
 -0.019595
 -0.010683
  -0.01132
 -0.015139
 -0.013866
 -0.017048
 -0.013866
 -0.018322
 -0.012593
 -0.019595
 -0.010683
 -0.020868
 -0.010047
 -0.010683
 -0.001772
 -0.010683
 -0.000499
  -0.01132
 -0.002409
 -0.010047
 -0.000499
  -0.01132
 -0.001772
 -0.010683
 -0.000499
 -0.001136
  0.006503
 -0.000499
  0.009685
  0.008412
  0.007776
 -0.000499
  0.009685
  0.008412
  0.007139
  0.007776
  0.018596
  0.019869
  0.019233
  0.017323
  0.018596
  0.009049
  0.017323
  0.017323
  0.018596
  0.019869
  0.017323
   0.01605
    0.0326
  0.030054
  0.028781
  0.026871
  0.028781
  0.027508
  0.029417
  0.026235
  0.028781
  0.029417
  0.038965
  0.026871
  0.028781
  0.028781
  0.028781
  0.026871
  0.056151
  0.037692
  0.038328
  0.035782
  0.037055
  0.037055
  0.047876
  0.037692
  0.036419
  0.037692
  0.047876
  0.037692
   0.04724
  0.037055
  0.038328
  0.038328
  0.047876
  0.035782
  0.046603
  0.038328
  0.039601
  0.037692
    0.0326
  0.033873
  0.031327
  0.028781
  0.027508
  0.035146
  0.028781
  0.028144
  0.027508
  0.027508
  0.019233
  0.018596
  0.019233
  0.018596
  0.018596
  0.027508
   0.01796
  0.019233
  0.019233
   0.01796
  0.017323
  0.019233
  0.009049
  0.009049
  0.008412
  0.009685
  0.009049
  0.016687
  0.007776
  0.009049
  0.009049
  0.008412
  0.008412
  0.008412
 -0.000499
 -0.002409
 -0.000499
 -0.000499
  0.000137
  0.007139
 -0.000499
   0.00141
 -0.000499
 -0.008137
 -0.010683
 -0.010047
 -0.010047
 -0.010683
  -0.01132
 -0.010683
 -0.000499
 -0.010683
  -0.01132
 -0.010683
 -0.008137
 -0.010683
  -0.01132
 -0.010683
 -0.010683
  -0.00941
  -0.00941
  -0.01132
 -0.010683
 -0.008774
 -0.010047
 -0.010683
 -0.010683
  -0.00941
 -0.010683
 -0.010683
 -0.010683
 -0.010047
 -0.008774
  -0.00941
 -0.010047
 -0.010047
  -0.00941
 -0.010683
 -0.010683
 -0.010683
 -0.008137
 -0.010683
 -0.010683
 -0.010047
 -0.010047
 -0.008774
 -0.010047
  -0.01132
 -0.010047
 -0.010047
 -0.010683
 -0.010683
 -0.010683
 -0.010047
 -0.010047
 -0.010683
 -0.010683
 -0.008774
 -0.010047
  -0.01132
 -0.010047
 -0.010047
  -0.00941
 -0.010683
 -0.010047
  -0.00941
 -0.010683
 -0.011956
 -0.010683
 -0.010047
  -0.00941
 -0.010047
 -0.010683
 -0.010683
 -0.010047
 -0.010683
  -0.01132
 -0.010683
 -0.010047
  -0.00941
 -0.010683
 -0.010683
 -0.010047
 -0.010047
  -0.00941
  -0.01132
 -0.010683
 -0.008774
 -0.010047
 -0.010683
 -0.010683
 -0.010047
 -0.010683
 -0.010683
 -0.010047
 -0.008774
 -0.010047
  -0.01132
 -0.010047
 -0.008774
 -0.010047
 -0.010047
 -0.010683
 -0.010047
 -0.010683
 -0.010683
 -0.010047
  -0.00941
 -0.010683
  -0.01132
 -0.010683
  -0.01132
  -0.00941
 -0.010047
 -0.010683
 -0.010683
 -0.008774
 -0.010047
 -0.010683
 -0.010047
 -0.010047
 -0.010047
 -0.010683
 -0.011956
  -0.00941
 -0.010683
 -0.010047
  -0.01132
  -0.01132
 -0.008774
  -0.00941
 -0.010683
  -0.01132
 -0.010683
 -0.010047
 -0.010047
  -0.01132
 -0.010683
  -0.00941
 -0.010683
  -0.01132
 -0.010683
  -0.00941
 -0.010047
  -0.01132
  -0.00941
 -0.010047
 -0.010683
 -0.010683
  -0.01132
 -0.010683
 -0.010047
 -0.010683
 -0.010047
 -0.008774
 -0.010683
  -0.01132
 -0.010047
 -0.010047
 -0.011956
 -0.010683
 -0.010047
 -0.010047
  -0.01132
 -0.010683
 -0.010047
  -0.01132
 -0.010047
  -0.00941
 -0.010047
 -0.011956
 -0.010683
 -0.010047
 -0.010683
  -0.01132
 -0.010683
 -0.010683
  -0.01132
 -0.010683
 -0.008774
 -0.010683
 -0.010683
  -0.01132
 -0.010683
  -0.00941
 -0.010683
 -0.011956
 -0.010683
 -0.008774
 -0.008774
 -0.010047
 -0.010047
  -0.01132
 -0.010047
 -0.010683
 -0.010047
 -0.008137
 -0.008774
 -0.010683
 -0.010683
 -0.010683
 -0.008774
 -0.010683
 -0.011956
 -0.010683
  -0.00941
  -0.01132
 -0.010683
 -0.010683
 -0.008774
 -0.010683
  -0.01132
 -0.010047
 -0.008774
 -0.010683
  -0.01132
 -0.010683
  -0.00941
  -0.00941
 -0.010683
 -0.010683
 -0.010683
 -0.010047
 -0.010683
 -0.010047
 -0.010683
 -0.011956
 -0.010683
 -0.008774
 -0.010683
  -0.01132
  -0.00941
 -0.010047
 -0.010683
 -0.010683
  -0.01132
  -0.01132
  -0.00941
 -0.010683
 -0.010683
 -0.010683
 -0.008774
 -0.010683
 -0.010683
 -0.010047
 -0.010683
  -0.01132
 -0.010683
 -0.008774
 -0.010683
 -0.010683
 -0.010047
  -0.00941
  -0.01132
 -0.010047
  -0.00941
  -0.00941
 -0.010683
  -0.01132
  -0.00941
 -0.010047
 -0.011956
 -0.010047
 -0.010683
 -0.011956
 -0.010047
 -0.010683
 -0.010047
  -0.01132
  -0.00941
  -0.00941
 -0.010683
  -0.01132
 -0.010683
 -0.008774
 -0.010683
 -0.010683
  -0.00941
 -0.010047
 -0.010683
  -0.00941
 -0.008774
 -0.010683
  -0.01132
 -0.010683
 -0.010047
 -0.010683
 -0.010683
 -0.010047
  -0.00941
 -0.012593
 -0.010047
 -0.010683
 -0.010683
 -0.010683
 -0.008774
 -0.010047
  -0.01132
 -0.010683
 -0.008774
 -0.010683
 -0.008774
  -0.00941
 -0.010683
 -0.010683
 -0.010047
 -0.010683
  -0.01132
 -0.010683
 -0.020868
 -0.010047
 -0.021504
 -0.010683
 -0.010683
  -0.01132
 -0.020231
 -0.010047
  -0.01132
 -0.001136
 -0.008774
  0.008412
  0.008412
  0.009049
 -0.001772
  0.007139
  0.007776
  0.019233
  0.016687
  0.019233
  0.009049
  0.019233
  0.017323
  0.018596
  0.017323
  0.017323
  0.018596
  0.019233
  0.017323
  0.017323
  0.018596
  0.019233
  0.018596
   0.01605
  0.018596
  0.028781
  0.028144
  0.027508
  0.027508
  0.027508
  0.028144
  0.029417
  0.026235
  0.028781
  0.028781
  0.028781
  0.026235
  0.027508
  0.017323
  0.018596
  0.017323
  0.028144
  0.019233
  0.019869
  0.018596
  0.017323
   0.01796
  0.028781
  0.017323
  0.017323
  0.017323
  0.017323
  0.008412
  0.007776
  0.009049
  0.018596
  0.007776
  0.008412
  0.009049
  0.002047
 -0.000499
 -0.000499
  0.007139
 -0.000499
 -0.000499
 -0.010047
 -0.010683
 -0.010683
  0.000137
 -0.010047
 -0.010683
  -0.01132
  -0.00941
 -0.012593
  -0.00941
 -0.010047
 -0.010047
 -0.010683
 -0.010047
 -0.010047
 -0.010683
 -0.010683
 -0.010047
 -0.012593
 -0.010047
 -0.010683
  -0.00941
  -0.01132
 -0.010683
 -0.008774
 -0.010683
 -0.010047
 -0.008774
 -0.010047
 -0.010683
 -0.010683
 -0.010047
 -0.010683
  -0.01132
 -0.010047
 -0.010047
 -0.010683
 -0.010047
 -0.010047
  -0.01132
 -0.010047
 -0.010683
  -0.01132
 -0.010683
 -0.008774
 -0.010047
 -0.010047
 -0.010683
 -0.010047
  -0.01132
 -0.010683
 -0.008774
 -0.010683
 -0.010047
 -0.010047
 -0.010683
 -0.010683
 -0.010047
 -0.010683
 -0.011956
 -0.010047
  -0.00941
 -0.010047
  -0.01132
  -0.00941
 -0.010047
 -0.010683
 -0.010683
 -0.010047
 -0.010047
 -0.010047
 -0.010047
  -0.00941
 -0.010047
  -0.01132
  -0.00941
  -0.00941
 -0.000499
 -0.010683
 -0.004955
 -0.006864
 -0.004318
 -0.017048
 -0.001772
 -0.019595
 -0.039327
 -0.041236
  -0.06797
 -0.050784
 -0.077517
 -0.048874
 -0.144988
 -0.088975
 -0.288841
 -0.117618
 -0.202911
 -0.146898
 -0.232827
 -0.146261
 -0.223916
  -0.13735
 -0.202274
 -0.115072
 -0.204184
 -0.127166
 -0.181906
 -0.125256
 -0.223916
 -0.098522
 -0.116981
  -0.06797
 -0.098522
 -0.057785
 -0.104888
 -0.058422
 -0.059695
 -0.048238
 -0.044419
 -0.022141
 -0.010683
  0.028781
  0.033236
  0.034509
  0.030054
  0.088613
  0.051695
  0.084794
  0.052332
   0.13126
  0.079065
  0.142717
  0.080338
  0.160539
   0.08734
  0.219099
  0.096888
  0.210187
  0.115347
  0.203186
  0.105162
  0.189182
  0.113437
  0.212734
  0.115347
  0.190456
  0.093705
  0.221645
  0.124258
  0.210824
  0.066972
  0.048513
  0.046603
  0.017323
  0.009049
 -0.029142
  0.008412
 -0.061605
 -0.020868
 -0.020231
 -0.048238
 -0.080063
 -0.050784
 -0.036144
 -0.028506
 -0.029142
 -0.030415
 -0.030415
 -0.028506
 -0.029142
 -0.031688
 -0.029142
 -0.029142
 -0.029779
 -0.030415
 -0.030415
 -0.031052
 -0.029142
 -0.029142
 -0.029779
 -0.030415
 -0.029142
 -0.030415
 -0.029142
 -0.029142
 -0.031052
 -0.028506
 -0.027869
 -0.029142
 -0.030415
 -0.030415
 -0.029142
 -0.029142
 -0.030415
 -0.031688
 -0.029779
 -0.028506
 -0.029142
 -0.030415
 -0.030415
 -0.030415
 -0.029142
 -0.029779
 -0.031052
 -0.030415
 -0.028506
 -0.030415
 -0.031688
 -0.030415
 -0.030415
 -0.029142
 -0.029142
 -0.031052
 -0.030415
 -0.029142
 -0.029779
 -0.031052
 -0.029142
 -0.028506
 -0.031052
 -0.029142
 -0.029142
 -0.029142
 -0.031052
 -0.029142
 -0.028506
 -0.030415
 -0.030415
 -0.028506
 -0.029779
 -0.030415
 -0.029142
 -0.029142
 -0.029779
 -0.031052
 -0.029142
 -0.029142
 -0.031052
 -0.030415
 -0.029142
 -0.029142
 -0.031052
 -0.029779
 -0.029779
 -0.033598
 -0.035507
 -0.031052
 -0.028506
 -0.031052
 -0.031688
 -0.037417
 -0.031052
 -0.031052
 -0.031688
 -0.030415
 -0.019595
 -0.020231
 -0.020868
 -0.020868
 -0.018958
 -0.020231
 -0.020868
 -0.029779
 -0.019595
 -0.020231
 -0.020868
 -0.020231
 -0.020231
 -0.020868
 -0.020868
 -0.020868
 -0.010683
 -0.010683
 -0.011956
 -0.019595
 -0.019595
 -0.018958
 -0.018958
 -0.018958
  -0.00941
 -0.010683
 -0.010683
 -0.010047
 -0.010047
 -0.020231
 -0.013866
 -0.014502
 -0.016412
 -0.013866
 -0.017048
  -0.01132
 -0.010047
 -0.011956
 -0.020231
 -0.011956
 -0.020868
  -0.01132
 -0.019595
 -0.010683
 -0.020868
 -0.010683
 -0.020231
 -0.011956
 -0.010683
 -0.000499
 -0.010683
 -0.001136
  -0.01132
  0.000137
 -0.010683
 -0.000499
 -0.010683
 -0.000499
 -0.011956
 -0.000499
  0.000137
  0.008412
 -0.001772
  0.009049
  0.009049
  0.009049
 -0.000499
  0.010322
  0.009049
  0.007139
  0.009685
  0.019233
  0.018596
  0.018596
  0.019233
  0.013504
  0.015414
  0.016687
  0.017323
  0.019869
   0.01796
  0.018596
  0.016687
  0.037055
  0.029417
  0.029417
  0.028144
  0.028144
  0.028781
  0.028144
  0.026871
  0.029417
  0.029417
  0.036419
  0.027508
  0.028144
  0.028144
  0.027508
  0.027508
  0.057424
  0.036419
  0.034509
  0.037055
  0.037692
  0.035782
   0.04533
  0.037692
  0.037692
  0.037692
  0.047876
  0.037692
  0.047876
  0.037692
  0.036419
  0.041511
  0.042784
  0.042147
  0.039601
  0.038965
  0.037692
  0.037055
  0.029417
  0.037692
  0.028144
  0.026235
  0.027508
  0.039601
  0.028781
  0.026871
  0.028144
  0.027508
   0.01796
  0.019233
  0.019233
  0.019233
  0.017323
  0.028781
  0.018596
  0.019233
  0.017323
  0.019233
  0.018596
  0.019233
  0.007776
  0.007776
  0.009685
  0.007776
  0.009049
  0.019869
  0.008412
  0.007776
  0.008412
  0.008412
  0.008412
  0.009049
 -0.000499
 -0.001136
 -0.000499
 -0.000499
  0.006503
 -0.000499
 -0.001136
 -0.000499
 -0.000499
  -0.01132
 -0.008774
 -0.010047
 -0.011956
  -0.01132
  -0.00941
 -0.010683
 -0.000499
 -0.010047
 -0.008774
 -0.011956
 -0.010683
 -0.010683
 -0.010683
  -0.01132
 -0.010047
 -0.010683
  -0.01132
 -0.010683
  -0.00941
 -0.010683
 -0.010683
 -0.010047
  -0.00941
  -0.01132
 -0.010683
  -0.00941
 -0.010047
 -0.010683
 -0.010683
 -0.010047
 -0.010683
 -0.010683
 -0.008774
 -0.010683
 -0.011956
 -0.010683
 -0.010047
  -0.01132
 -0.010683
  -0.00941
 -0.011956
 -0.010047
 -0.008774
 -0.010047
  -0.01132
  -0.00941
 -0.010047
 -0.010683
 -0.010683
 -0.008774
 -0.010683
 -0.010683
 -0.010047
  -0.00941
 -0.011956
 -0.010683
  -0.00941
 -0.010047
  -0.01132
 -0.010683
 -0.010047
  -0.00941
  -0.01132
 -0.010683
 -0.010683
 -0.010683
 -0.010047
 -0.010683
  -0.00941
 -0.011956
 -0.010683
 -0.008774
 -0.010683
 -0.010683
 -0.010047
  -0.00941
  -0.01132
 -0.010047
  -0.00941
 -0.010047
 -0.011956
  -0.00941
 -0.010683
 -0.010047
 -0.010683
  -0.00941
  -0.01132
 -0.010047
 -0.010047
 -0.010683
 -0.010683
  -0.00941
 -0.010047
  -0.01132
 -0.010683
  -0.00941
 -0.010683
 -0.010047
 -0.010047
 -0.010683
 -0.010683
 -0.010047
 -0.010047
 -0.010683
  -0.01132
  -0.00941
 -0.010047
  -0.01132
  -0.01132
 -0.008774
  -0.01132
 -0.010683
 -0.010047
 -0.010047
 -0.011956
 -0.010683
 -0.010047
 -0.010047
 -0.010683
 -0.010047
  -0.00941
 -0.010683
  -0.01132
 -0.010047
 -0.008774
 -0.010047
 -0.010683
  -0.00941
  -0.00941
 -0.010683
 -0.010683
  -0.00941
  -0.00941
 -0.010047
 -0.011956
  -0.00941
  -0.00941
 -0.011956
 -0.010683
 -0.008137
  -0.01132
 -0.010683
 -0.010047
 -0.010047
 -0.010683
 -0.010683
  -0.00941
 -0.010047
  -0.01132
 -0.008774
 -0.010683
 -0.010683
 -0.010683
 -0.010047
 -0.010683
  -0.00941
 -0.008774
 -0.010683
 -0.010047
  -0.00941
  -0.01132
 -0.010683
 -0.010047
 -0.010047
 -0.010683
 -0.010047
  -0.00941
 -0.010047
 -0.011956
  -0.01132
  -0.00941
 -0.010047
  -0.01132
 -0.010047
  -0.00941
 -0.010683
 -0.010683
 -0.010683
 -0.008137
 -0.010047
 -0.010683
 -0.010047
  -0.01132
 -0.008137
 -0.010683
 -0.010683
  -0.01132
  -0.01132
 -0.008774
 -0.010047
  -0.01132
  -0.01132
 -0.008774
 -0.010683
  -0.01132
 -0.010683
  -0.00941
 -0.008774
 -0.010683
 -0.010683
  -0.00941
 -0.010047
 -0.010047
  -0.01132
 -0.010683
 -0.008774
 -0.008774
  -0.01132
 -0.010683
  -0.00941
 -0.010683
  -0.01132
 -0.010683
  -0.00941
 -0.010683
  -0.01132
 -0.010683
 -0.008774
 -0.010047
  -0.01132
 -0.010683
 -0.010683
 -0.008774
 -0.010683
 -0.012593
 -0.010047
 -0.010047
 -0.010047
  -0.01132
 -0.010683
  -0.00941
 -0.010683
 -0.010683
 -0.010683
 -0.010047
 -0.008774
 -0.010047
  -0.01132
 -0.010047
 -0.008774
 -0.010683
 -0.010683
  -0.01132
 -0.010683
 -0.008774
 -0.010047
 -0.011956
 -0.010047
 -0.010047
 -0.010683
 -0.011956
 -0.010683
 -0.008774
 -0.010683
 -0.010683
  -0.00941
 -0.008774
 -0.010683
 -0.010683
 -0.011956
 -0.010047
 -0.008774
 -0.010683
  -0.01132
  -0.00941
 -0.010047
 -0.010047
  -0.01132
 -0.010683
  -0.00941
 -0.010047
 -0.010683
  -0.00941
 -0.010683
  -0.01132
  -0.01132
 -0.008774
 -0.010047
 -0.010683
 -0.010683
 -0.010047
  -0.01132
 -0.010047
  -0.00941
  -0.01132
 -0.010047
 -0.008774
 -0.010683
  -0.01132
  -0.00941
 -0.008774
 -0.010047
  -0.01132
 -0.010047
 -0.008774
 -0.008774
  -0.01132
 -0.010683
 -0.010047
 -0.010683
 -0.010683
 -0.010047
 -0.010047
 -0.010683
 -0.010047
 -0.008774
 -0.010683
 -0.022141
 -0.010683
 -0.018322
 -0.010683
 -0.011956
 -0.010047
 -0.020231
  -0.01132
 -0.010683
 -0.000499
 -0.010047
  0.007139
  0.009685
  0.008412
 -0.002409
  0.008412
  0.009049
   0.01796
  0.017323
  0.012868
  0.014777
  0.017323
  0.018596
   0.01796
  0.016687
  0.018596
  0.018596
  0.018596
  0.016687
  0.018596
  0.018596
  0.017323
  0.018596
  0.019233
  0.017323
  0.028144
  0.027508
  0.028144
  0.026871
  0.029417
  0.028144
  0.026871
  0.028144
  0.028144
  0.028144
  0.027508
  0.027508
  0.026871
  0.018596
   0.01796
  0.016687
  0.028781
  0.019233
  0.018596
  0.018596
  0.019869
  0.018596
  0.027508
  0.019233
  0.018596
  0.017323
  0.010958
  0.009685
  0.009049
  0.016687
  0.010322
  0.009049
  0.008412
  0.007139
 -0.000499
  0.000137
  0.000137
  0.007776
  0.000774
 -0.001136
  -0.01132
 -0.010683
 -0.010683
   0.00141
  -0.00941
 -0.010683
 -0.010047
 -0.008774
 -0.010047
 -0.010683
 -0.010683
 -0.008774
 -0.010683
 -0.010047
 -0.012593
 -0.010683
 -0.010047
 -0.008774
 -0.010047
 -0.010047
  -0.00941
 -0.008774
  -0.01132
 -0.010683
 -0.010047
 -0.010047
  -0.01132
 -0.010683
 -0.010683
  -0.00941
 -0.010047
  -0.01132
  -0.01132
 -0.010047
 -0.010047
 -0.010683
 -0.010683
  -0.00941
 -0.010683
  -0.01132
  -0.01132
  -0.00941
 -0.010047
 -0.010683
 -0.010683
 -0.010047
 -0.010047
 -0.010683
  -0.01132
 -0.010683
 -0.008774
 -0.010683
  -0.01132
 -0.010047
  -0.00941
 -0.010683
 -0.011956
 -0.010683
 -0.010047
 -0.010683
 -0.010683
  -0.01132
 -0.008774
 -0.010683
  -0.01132
 -0.010683
 -0.008774
  -0.01132
 -0.010683
 -0.010683
 -0.010047
 -0.010683
  -0.01132
 -0.010047
  -0.00941
  -0.00941
 -0.010047
  0.004593
 -0.019595
 -0.000499
  -0.01132
 -0.002409
 -0.020868
 -0.001772
 -0.020868
 -0.039327
 -0.039963
 -0.069243
 -0.049511
 -0.076881
 -0.047601
 -0.145625
 -0.088975
  -0.29075
 -0.115072
 -0.204184
 -0.145625
   -0.2341
 -0.146261
 -0.223916
  -0.13735
 -0.202911
 -0.115708
 -0.203547
 -0.126529
 -0.185089
 -0.125893
 -0.223279
 -0.098522
 -0.104888
 -0.081337
 -0.074335
 -0.090248
 -0.071152
 -0.057785
 -0.049511
 -0.048874
 -0.032325
  -0.01132
 -0.010683
  0.045967
  0.029417
  0.037692
  0.027508
  0.095615
  0.049786
   0.08543
   0.04724
  0.134442
  0.076519
  0.146536
  0.077792
  0.160539
  0.084794
  0.221008
  0.095615
  0.210824
  0.114074
  0.201913
  0.105162
  0.191729
  0.113437
  0.212734
   0.11662
  0.192365
  0.093705
  0.219099
  0.124258
  0.212097
  0.065699
   0.04724
  0.037055
  0.014141
 -0.013229
 -0.003682
 -0.043782
 -0.027233
 -0.020868
 -0.022141
 -0.099795
  -0.05333
 -0.050784
 -0.031688
 -0.029142
 -0.029779
 -0.031052
 -0.029142
 -0.029779
 -0.029142
 -0.031052
 -0.029779
 -0.029142
 -0.029142
 -0.030415
 -0.029142
 -0.029142
 -0.031052
 -0.031688
 -0.030415
 -0.029142
 -0.030415
 -0.030415
 -0.029779
 -0.027869
 -0.031052
 -0.031052
 -0.029142
 -0.029142
 -0.029142
 -0.031052
 -0.029779
 -0.028506
 -0.030415
 -0.030415
 -0.029142
 -0.029779
 -0.031052
 -0.029779
 -0.029142
 -0.029779
 -0.030415
 -0.031052
 -0.029142
 -0.028506
 -0.029779
 -0.031052
 -0.030415
 -0.028506
 -0.029142
 -0.031052
 -0.029779
 -0.029779
 -0.030415
 -0.030415
 -0.029779
 -0.029142
 -0.030415
 -0.030415
 -0.029142
 -0.029142
 -0.031052
 -0.030415
 -0.030415
 -0.029142
 -0.030415
 -0.030415
 -0.029142
 -0.029142
 -0.031052
 -0.029779
 -0.029142
 -0.030415
 -0.031052
 -0.029779
 -0.030415
 -0.030415
 -0.029779
 -0.029142
 -0.030415
 -0.031052
 -0.028506
 -0.029142
 -0.029142
 -0.039327
 -0.029779
 -0.029779
 -0.029779
 -0.029779
 -0.029142
  -0.03869
 -0.031052
 -0.029779
 -0.029142
 -0.029779
 -0.020868
 -0.019595
 -0.021504
 -0.020868
 -0.020231
 -0.019595
 -0.020868
 -0.031688
 -0.020231
 -0.021504
 -0.019595
 -0.020231
 -0.020231
 -0.020231
 -0.018958
 -0.018958
  -0.01132
 -0.010683
 -0.008774
 -0.018958
 -0.018322
 -0.018958
 -0.017048
 -0.015139
  -0.01132
  -0.01132
  -0.00941
 -0.010047
 -0.020868
 -0.011956
 -0.018958
 -0.011956
 -0.020231
 -0.010683
 -0.019595
  -0.01132
 -0.010683
 -0.008774
 -0.020868
 -0.011956
 -0.020231
 -0.010047
 -0.020231
 -0.011956
 -0.020868
 -0.008774
 -0.020868
 -0.011956
 -0.012593
 -0.001136
 -0.010683
 -0.001136
  -0.01132
 -0.000499
  -0.00941
 -0.000499
 -0.010683
 -0.003045
 -0.010683
 -0.000499
 -0.001772
  0.007139
 -0.002409
  0.008412
  0.009049
  0.004593
  0.003957
  0.009049
  0.010958
  0.009685
  0.017323
  0.019233
   0.01796
  0.019233
  0.017323
  0.008412
  0.018596
  0.019233
  0.019233
  0.016687
  0.018596
  0.018596
  0.019233
  0.037055
  0.026235
  0.027508
  0.028144
  0.027508
  0.027508
  0.027508
  0.027508
  0.029417
  0.028144
  0.037692
  0.027508
  0.028144
  0.028144
  0.028144
  0.030054
  0.057424
  0.037055
  0.036419
  0.037055
  0.037055
  0.035782
   0.04533
  0.038965
  0.037692
  0.042784
  0.042784
  0.045967
  0.040238
  0.037692
  0.037055
  0.047876
  0.037692
   0.04724
  0.037692
  0.038328
  0.038965
  0.038965
  0.028144
  0.035782
  0.027508
  0.030054
  0.027508
  0.037692
  0.026871
  0.028144
  0.027508
  0.028144
  0.018596
  0.019233
  0.019233
  0.019233
  0.017323
  0.027508
   0.01796
  0.016687
  0.017323
  0.018596
   0.01796
  0.016687
  0.007139
  0.009685
  0.007776
  0.007139
  0.009049
  0.014777
  0.009049
  0.008412
  0.009049
  0.008412
  0.007139
  0.000774
 -0.000499
 -0.000499
 -0.001136
 -0.000499
  0.009685
 -0.001136
 -0.001136
 -0.000499
 -0.000499
 -0.010683
  -0.01132
 -0.010047
 -0.010047
 -0.010683
 -0.010047
 -0.010683
  0.000774
 -0.010047
  -0.01132
 -0.010683
 -0.008774
 -0.008774
 -0.010683
 -0.010683
 -0.008774
 -0.010047
 -0.010683
 -0.010683
 -0.010683
  -0.00941
 -0.010683
  -0.01132
 -0.010683
 -0.010683
 -0.010683
 -0.010683
 -0.010683
 -0.010047
 -0.008774
 -0.010047
 -0.010683
 -0.010683
 -0.010047
 -0.010047
 -0.012593
 -0.010683
 -0.010047
  -0.00941
 -0.008774
  -0.01132
 -0.010047
 -0.010047
 -0.010683
 -0.010683
 -0.010683
  -0.00941
 -0.010047
 -0.010047
 -0.010683
  -0.00941
 -0.010047
 -0.010683
 -0.010683
 -0.008774
 -0.010047
 -0.010047
  -0.01132
 -0.010047
 -0.010047
 -0.010047
 -0.012593
 -0.010047
 -0.008774
 -0.010047
 -0.011956
 -0.010047
 -0.010047
  -0.00941
  -0.01132
 -0.010683
 -0.008774
  -0.00941
  -0.01132
 -0.010683
 -0.010683
 -0.010047
  -0.01132
  -0.00941
  -0.01132
 -0.010047
 -0.010683
  -0.01132
 -0.010683
  -0.00941
 -0.010047
 -0.011956
 -0.010683
  -0.00941
 -0.008774
 -0.010047
 -0.010683
  -0.00941
 -0.010683
 -0.011956
 -0.010683
 -0.008774
 -0.010047
 -0.010683
 -0.010683
  -0.00941
 -0.010047
 -0.010683
 -0.010047
  -0.00941
 -0.010047
 -0.010683
  -0.00941
  -0.01132
  -0.01132
 -0.010683
  -0.00941
 -0.008774
 -0.010683
 -0.010683
 -0.010047
 -0.010683
 -0.010683
  -0.00941
  -0.00941
  -0.01132
  -0.00941
  -0.00941
 -0.010683
  -0.01132
 -0.010047
  -0.00941
 -0.010683
 -0.010683
 -0.008774
 -0.010047
  -0.01132
 -0.010683
  -0.00941
  -0.01132
 -0.010683
 -0.010047
 -0.010683
 -0.010683
 -0.010047
 -0.008774
 -0.011956
 -0.011956
 -0.008774
  -0.00941
  -0.01132
  -0.00941
  -0.00941
 -0.010047
 -0.010683
  -0.00941
  -0.00941
 -0.010683
 -0.010683
 -0.010683
  -0.01132
 -0.010683
 -0.008774
 -0.010683
  -0.01132
 -0.010683
  -0.00941
 -0.010047
  -0.01132
 -0.010683
 -0.010047
  -0.01132
 -0.010683
 -0.007501
 -0.010683
 -0.010683
 -0.010683
 -0.008774
 -0.010047
 -0.011956
 -0.010683
  -0.00941
 -0.011956
 -0.010683
 -0.010047
  -0.01132
 -0.010683
 -0.010683
 -0.010683
  -0.01132
 -0.010683
 -0.008137
  -0.01132
 -0.010683
 -0.010047
 -0.010683
 -0.010683
  -0.00941
 -0.010683
  -0.01132
  -0.00941
 -0.010047
  -0.01132
  -0.00941
 -0.010683
 -0.011956
 -0.008774
 -0.010047
 -0.011956
  -0.00941
 -0.010683
 -0.010683
 -0.008774
 -0.010047
  -0.01132
 -0.010683
 -0.010683
  -0.01132
 -0.010047
 -0.010047
 -0.010683
 -0.011956
 -0.010047
  -0.00941
  -0.00941
  -0.01132
 -0.008774
  -0.00941
 -0.010683
  -0.00941
 -0.008774
 -0.010047
 -0.010047
 -0.010683
 -0.008774
  -0.01132
 -0.010047
  -0.00941
 -0.010683
  -0.01132
 -0.010683
 -0.008774
 -0.010683
  -0.01132
 -0.010683
 -0.010047
  -0.01132
 -0.010683
 -0.008774
 -0.010047
  -0.01132
  -0.00941
 -0.010047
 -0.010047
 -0.011956
 -0.010683
  -0.00941
  -0.01132
  -0.01132
 -0.010047
 -0.010047
 -0.011956
 -0.010683
  -0.00941
 -0.010047
 -0.010683
  -0.00941
 -0.008774
 -0.008137
 -0.010047
 -0.010683
 -0.008774
  -0.01132
 -0.010047
 -0.010047
 -0.010047
 -0.010683
 -0.010047
 -0.010047
 -0.010047
  -0.01132
 -0.010047
 -0.008774
  -0.00941
  -0.01132
 -0.008774
 -0.010683
  -0.01132
  -0.01132
 -0.008774
 -0.010683
  -0.01132
 -0.010683
 -0.010683
 -0.010047
 -0.010047
 -0.010683
  -0.00941
 -0.010683
 -0.010683
 -0.010047
 -0.010047
 -0.010683
  -0.01132
  -0.00941
 -0.010047
 -0.010683
 -0.010047
 -0.010683
  -0.01132
 -0.010047
 -0.020868
 -0.011956
 -0.020868
 -0.010683
  -0.01132
 -0.010683
 -0.020231
 -0.010683
  -0.01132
 -0.001136
 -0.010047
  0.008412
  0.007776
  0.004593
  0.003957
  0.007776
   0.01605
  0.018596
  0.017323
  0.010322
  0.017323
   0.01796
  0.017323
  0.019233
  0.017323
  0.019233
  0.019869
  0.018596
  0.018596
  0.016687
   0.01796
  0.019869
  0.018596
  0.016687
  0.017323
  0.028781
  0.027508
  0.026871
  0.027508
  0.029417
  0.027508
  0.026871
  0.028781
  0.028781
  0.028781
  0.026871
  0.028144
  0.028781
  0.017323
  0.016687
   0.01796
  0.028781
  0.018596
   0.01796
  0.019233
   0.01796
  0.023689
  0.020506
  0.018596
  0.018596
  0.016687
  0.010322
  0.009049
  0.007139
  0.018596
  0.009049
  0.009049
  0.007776
  0.009685
 -0.001136
 -0.001772
 -0.000499
  0.009685
 -0.000499
 -0.001136
 -0.010047
 -0.010047
 -0.011956
 -0.000499
  -0.00941
 -0.010047
  -0.01132
 -0.010047
 -0.008774
 -0.010683
 -0.010683
 -0.010047
 -0.008774
 -0.011956
  -0.01132
 -0.010683
 -0.010047
  -0.01132
  -0.01132
  -0.00941
 -0.010683
 -0.010683
  -0.01132
  -0.00941
 -0.010683
  -0.01132
 -0.010683
 -0.010047
 -0.010047
  -0.01132
 -0.010683
  -0.00941
  -0.01132
  -0.01132
 -0.010047
 -0.008774
 -0.010047
 -0.010683
 -0.010683
 -0.010047
 -0.010047
  -0.01132
 -0.010047
  -0.00941
 -0.011956
 -0.010047
  -0.00941
  -0.00941
  -0.01132
 -0.010683
 -0.010047
 -0.010683
 -0.010683
  -0.01132
 -0.010047
  -0.00941
 -0.010047
 -0.012593
 -0.010683
 -0.010683
  -0.00941
 -0.011956
  -0.01132
 -0.010047
 -0.010683
 -0.010683
 -0.010683
 -0.010047
 -0.010683
  -0.01132
 -0.010047
 -0.008774
 -0.010683
  -0.01132
 -0.010683
 -0.010047
 -0.010047
   0.00523
 -0.020868
 -0.000499
 -0.010683
 -0.001772
 -0.020231
 -0.001772
 -0.021504
 -0.039963
 -0.039327
  -0.06797
 -0.049511
 -0.077517
 -0.048238
 -0.147534
 -0.088338
 -0.290114
 -0.115708
  -0.20482
 -0.146261
 -0.232191
 -0.146898
 -0.223916
  -0.13735
 -0.202274
   -0.1208
 -0.182542
 -0.150717
 -0.151353
  -0.19209
 -0.130348
 -0.111889
 -0.076244
 -0.094067
 -0.060968
 -0.104888
 -0.062241
 -0.059058
 -0.048238
 -0.049511
 -0.029779
  -0.00941
 -0.010683
  0.046603
  0.028144
  0.037055
  0.026871
  0.095615
  0.047876
  0.086704
  0.046603
  0.135715
  0.075883
   0.14399
  0.077156
  0.163722
   0.08543
  0.219735
  0.095615
  0.212734
  0.115347
  0.201276
  0.103889
  0.192365
  0.113437
  0.212097
  0.117256
  0.181544
  0.133806
  0.175179
  0.177089
  0.110891
  0.051695
  0.047876
  0.023689
  0.009049
 -0.027233
  0.005866
 -0.057785
 -0.022141
 -0.020868
 -0.022141
 -0.106161
 -0.050784
 -0.048874
 -0.029142
 -0.031688
 -0.029779
 -0.028506
 -0.029779
 -0.031052
 -0.029779
 -0.028506
 -0.031052
 -0.029142
 -0.029142
 -0.030415
 -0.031688
 -0.030415
 -0.029142
 -0.029779
 -0.030415
 -0.029779
 -0.029142
 -0.029142
 -0.030415
 -0.029779
 -0.029142
 -0.029779
 -0.031052
 -0.029142
 -0.029142
 -0.029142
 -0.031052
 -0.029779
 -0.029142
 -0.029779
 -0.031052
 -0.030415
 -0.029142
 -0.030415
 -0.031688
 -0.030415
 -0.028506
 -0.030415
 -0.031052
 -0.029779
 -0.029779
 -0.029142
 -0.028506
 -0.029142
 -0.031052
 -0.030415
 -0.029142
 -0.029142
 -0.030415
 -0.028506
 -0.031052
 -0.029779
 -0.028506
 -0.029142
 -0.029779
 -0.031688
 -0.030415
 -0.029142
 -0.030415
 -0.030415
 -0.030415
 -0.029779
 -0.029142
 -0.029142
 -0.030415
 -0.029142
 -0.029142
 -0.030415
 -0.031052
 -0.029779
 -0.030415
 -0.029142
 -0.030415
 -0.031052
 -0.029142
 -0.028506
 -0.030415
 -0.031052
 -0.029142
 -0.039327
 -0.030415
 -0.031052
 -0.029142
 -0.030415
 -0.031052
 -0.039327
 -0.029779
 -0.030415
 -0.031052
 -0.029779
 -0.018958
 -0.020868
 -0.020868
 -0.020868
 -0.018958
 -0.020231
 -0.018958
 -0.029142
 -0.020231
 -0.020868
 -0.018958
 -0.018958
 -0.020231
 -0.020868
 -0.020868
 -0.018322
  -0.01132
 -0.012593
 -0.015775
 -0.017685
 -0.018322
 -0.018958
 -0.020231
  -0.01132
 -0.010683
 -0.010047
 -0.010683
 -0.011956
 -0.020868
  -0.01132
 -0.020231
 -0.010683
 -0.020868
 -0.010683
 -0.019595
 -0.010047
 -0.010683
  -0.01132
 -0.019595
  -0.01132
 -0.020868
 -0.010683
 -0.020231
  -0.01132
 -0.019595
 -0.008774
 -0.022141
  -0.01132
 -0.010683
 -0.000499
 -0.010683
 -0.000499
 -0.010683
 -0.002409
 -0.010683
 -0.000499
  -0.01132
 -0.001136
 -0.006228
 -0.001136
   0.00332
  0.002047
  0.007776
  0.008412
  0.007776
   0.00141
  0.007776
  0.008412
  0.009049
  0.009685
   0.01796
  0.017323
  0.019233
  0.018596
  0.017323
  0.009685
  0.018596
  0.019233
  0.016687
  0.018596
  0.018596
   0.01796
  0.016687
  0.037692
  0.029417
  0.027508
  0.026871
  0.028781
  0.029417
  0.028144
  0.026871
  0.028144
  0.028144
  0.038328
  0.026871
  0.027508
  0.028781
  0.026871
  0.027508
  0.054241
  0.037055
  0.035782
  0.037055
  0.037692
  0.044057
  0.038328
  0.038965
  0.037692
  0.046603
  0.037055
   0.04724
  0.038965
  0.039601
  0.038328
  0.048513
  0.037692
  0.046603
  0.037692
  0.038965
  0.037692
  0.037055
  0.027508
  0.037692
  0.028144
  0.027508
  0.027508
  0.038328
  0.026871
  0.026871
  0.028781
  0.028144
  0.017323
  0.018596
  0.019233
  0.018596
  0.017323
  0.027508
  0.018596
   0.01796
  0.016687
  0.018596
  0.019233
  0.014777
  0.007139
  0.008412
  0.009685
  0.008412
   0.01605
  0.009049
  0.009049
  0.009049
  0.009685
  0.007139
  0.009685
 -0.000499
 -0.000499
 -0.000499
  0.000137
 -0.001136
  0.009049
 -0.000499
 -0.001136
 -0.000499
 -0.000499
 -0.010683
 -0.010683
  -0.01132
 -0.010683
 -0.010683
 -0.010047
 -0.010047
  0.000774
 -0.010683
 -0.010683
 -0.010683
 -0.010683
  -0.00941
 -0.010683
 -0.012593
 -0.010683
 -0.010047
 -0.010047
  -0.01132
 -0.010683
 -0.008774
 -0.008774
 -0.011956
 -0.010683
 -0.010683
 -0.008774
 -0.010683
  -0.01132
  -0.00941
 -0.008774
 -0.010683
 -0.010683
 -0.010047
 -0.010683
  -0.00941
 -0.010683
 -0.010683
  -0.00941
 -0.010683
 -0.010683
 -0.010683
 -0.010047
 -0.010683
 -0.010683
  -0.00941
  -0.00941
 -0.010047
 -0.010683
 -0.010047
 -0.008774
  -0.00941
 -0.010683
 -0.010683
 -0.010047
 -0.008774
  -0.01132
 -0.010047
 -0.010683
 -0.010683
  -0.00941
 -0.008774
 -0.010683
  -0.01132
 -0.010683
 -0.010047
  -0.01132
 -0.010683
 -0.010047
 -0.010683
  -0.01132
 -0.010683
 -0.010683
 -0.010683
 -0.010047
 -0.008774
 -0.010047
 -0.010683
 -0.010047
 -0.010683
  -0.01132
 -0.010683
 -0.008774
 -0.010047
 -0.010683
 -0.010047
 -0.010683
 -0.010683
 -0.010047
 -0.008774
 -0.010047
 -0.011956
 -0.010683
 -0.010047
 -0.010683
 -0.011956
 -0.010683
  -0.01132
 -0.011956
 -0.010683
  -0.00941
 -0.010683
  -0.01132
 -0.008774
  -0.00941
 -0.011956
 -0.010047
 -0.008774
  -0.00941
  -0.01132
 -0.010047
 -0.008774
 -0.010683
 -0.010683
 -0.010683
 -0.010047
 -0.010047
 -0.010047
 -0.010047
 -0.010047
 -0.010683
 -0.010683
  0.134823
   0.13737
   0.14501
   0.13737
  0.132276
  0.139916
   0.14501
   0.13737
  0.132276
  0.129729
  0.129729
  0.129729
  0.124636
  0.127183
  0.122089
  0.101716
  0.094076
  0.101716
  0.106809
  0.096622
  0.088982
  0.088982
  0.096622
  0.091529
  0.076249
  0.083889
  0.076249
  0.071155
  0.066062
  0.078795
  0.060969
  0.055875
  0.053329
  0.058422
  0.055875
  0.045688
  0.055875
  0.050782
  0.040595
  0.035502
  0.038048
  0.048235
  0.030408
  0.025315
  0.030408
  0.038048
  0.030408
  0.027862
  0.027862
  0.040595
  0.030408
  0.025315
  0.017675
  0.025315
  0.025315
  0.017675
  0.017675
  0.027862
  0.027862
  0.017675
  0.025315
  0.027862
  0.025315
  0.007488
  0.012581
  0.017675
  0.015128
  0.007488
  0.010035
  0.020221
  0.010035
  0.007488
  0.015128
  0.015128
  0.010035
 -0.002699
  0.002395
  0.002395
  0.010035
 -0.000152
 -0.002699
  0.002395
  0.004941
  0.004941
 -0.005246
  0.004941
  0.010035
 -0.005246
 -0.017979
 -0.012886
 -0.002699
 -0.010339
 -0.012886
 -0.007792
 -0.005246
 -0.005246
 -0.015432
 -0.010339
  0.004941
 -0.007792
 -0.012886
 -0.012886
 -0.012886
 -0.000152
 -0.010339
 -0.010339
 -0.012886
 -0.007792
 -0.005246
 -0.005246
 -0.012886
 -0.005246
 -0.007792
 -0.015432
 -0.010339
 -0.005246
 -0.005246
 -0.012886
 -0.010339
 -0.002699
 -0.007792
 -0.012886
 -0.005246
 -0.002699
 -0.007792
 -0.010339
 -0.005246
 -0.002699
 -0.002699
 -0.010339
 -0.010339
 -0.002699
 -0.005246
 -0.010339
 -0.015432
 -0.012886
 -0.002699
 -0.007792
 -0.012886
 -0.007792
 -0.005246
 -0.012886
 -0.015432
 -0.010339
 -0.002699
 -0.007792
 -0.007792
 -0.012886
 -0.002699
 -0.010339
 -0.012886
 -0.007792
 -0.007792
 -0.007792
 -0.012886
 -0.005246
 -0.007792
 -0.015432
 -0.007792
 -0.005246
 -0.007792
 -0.012886
 -0.007792
 -0.002699
 -0.005246
 -0.015432
 -0.007792
 -0.002699
 -0.012886
 -0.015432
 -0.010339
 -0.002699
 -0.012886
 -0.012886
 -0.007792
 -0.005246
 -0.012886
 -0.010339
 -0.000152
 -0.005246
 -0.010339
 -0.007792
 -0.002699
 -0.007792
 -0.015432
 -0.002699
 -0.007792
 -0.012886
 -0.007792
  0.002395
 -0.010339
 -0.015432
 -0.007792
 -0.002699
 -0.010339
 -0.012886
 -0.007792
 -0.000152
 -0.007792
 -0.012886
 -0.007792
 -0.000152
 -0.010339
 -0.012886
 -0.005246
 -0.005246
 -0.005246
 -0.012886
 -0.007792
 -0.002699
 -0.010339
 -0.012886
 -0.007792
 -0.005246
 -0.010339
 -0.012886
 -0.010339
  0.002395
 -0.002699
 -0.010339
 -0.005246
 -0.002699
 -0.005246
 -0.012886
 -0.002699
 -0.010339
 -0.010339
 -0.005246
 -0.002699
 -0.010339
 -0.012886
 -0.007792
 -0.007792
 -0.007792
 -0.012886
 -0.010339
 -0.002699
 -0.010339
 -0.015432
 -0.007792
 -0.002699
 -0.007792
 -0.012886
 -0.007792
 -0.002699
 -0.005246
 -0.012886
 -0.010339
 -0.005246
 -0.015432
 -0.010339
 -0.002699
 -0.007792
 -0.012886
 -0.005246
 -0.000152
 -0.007792
 -0.012886
 -0.005246
 -0.002699
 -0.010339
 -0.012886
 -0.010339
 -0.002699
 -0.005246
 -0.007792
 -0.002699
 -0.007792
 -0.010339
 -0.012886
 -0.002699
 -0.007792
 -0.010339
 -0.007792
 -0.005246
 -0.010339
 -0.007792
 -0.002699
 -0.005246
 -0.012886
 -0.007792
 -0.002699
 -0.005246
 -0.010339
 -0.002699
 -0.005246
 -0.020526
 -0.005246
 -0.005246
 -0.005246
 -0.007792
 -0.002699
 -0.005246
 -0.010339
 -0.007792
 -0.002699
 -0.010339
 -0.012886
 -0.005246
 -0.002699
 -0.007792
 -0.012886
 -0.012886
 -0.000152
 -0.005246
 -0.012886
 -0.007792
 -0.007792
 -0.012886
 -0.005246
 -0.002699
 -0.007792
 -0.010339
 -0.010339
 -0.000152
 -0.012886
 -0.007792
 -0.002699
 -0.010339
 -0.012886
 -0.007792
 -0.000152
 -0.007792
 -0.012886
 -0.007792
 -0.002699
 -0.010339
 -0.007792
 -0.010339
 -0.007792
 -0.010339
 -0.012886
 -0.012886
 -0.002699
 -0.007792
 -0.012886
 -0.007792
 -0.005246
 -0.012886
 -0.012886
 -0.010339
 -0.002699
 -0.007792
 -0.010339
 -0.012886
 -0.010339
 -0.002699
 -0.007792
 -0.010339
 -0.000152
 -0.010339
 -0.002699
 -0.010339
 -0.012886
 -0.007792
  0.002395
 -0.007792
 -0.007792
 -0.010339
 -0.010339
 -0.002699
 -0.005246
 -0.005246
 -0.012886
 -0.007792
 -0.002699
 -0.010339
 -0.012886
 -0.010339
 -0.005246
 -0.000152
 -0.010339
 -0.005246
 -0.012886
 -0.010339
 -0.000152
 -0.002699
 -0.007792
 -0.015432
 -0.007792
 -0.007792
 -0.002699
 -0.007792
 -0.012886
 -0.010339
 -0.007792
  0.004941
  0.007488
  0.007488
  0.010035
  0.017675
  0.017675
  0.017675
  0.015128
  0.022768
  0.038048
  0.030408
  0.027862
  0.027862
  0.045688
  0.043142
  0.040595
  0.035502
  0.043142
  0.048235
  0.050782
  0.045688
  0.048235
  0.050782
  0.055875
  0.048235
  0.045688
  0.050782
  0.055875
  0.058422
  0.048235
  0.045688
  0.050782
  0.058422
  0.050782
  0.045688
  0.045688
  0.045688
  0.045688
  0.038048
  0.032955
  0.045688
  0.048235
  0.040595
  0.032955
  0.038048
  0.048235
  0.043142
  0.035502
  0.043142
  0.048235
  0.030408
  0.030408
  0.025315
  0.038048
  0.032955
  0.030408
  0.027862
  0.025315
  0.015128
  0.020221
  0.027862
  0.020221
  0.017675
  0.027862
  0.017675
  0.015128
  0.004941
  0.012581
  0.012581
  0.007488
  0.012581
  0.017675
 -0.005246
 -0.000152
  0.002395
 -0.000152
 -0.002699
  0.002395
 -0.002699
 -0.005246
 -0.012886
 -0.005246
 -0.000152
 -0.005246
 -0.012886
 -0.007792
 -0.002699
 -0.005246
 -0.012886
 -0.007792
 -0.005246
 -0.007792
 -0.012886
 -0.000152
 -0.002699
 -0.007792
 -0.012886
 -0.007792
 -0.002699
 -0.005246
 -0.010339
 -0.010339
  0.002395
 -0.000152
 -0.015432
 -0.005246
 -0.002699
 -0.010339
 -0.012886
 -0.012886
 -0.010339
 -0.002699
 -0.000152
 -0.012886
 -0.007792
 -0.002699
 -0.007792
 -0.015432
 -0.007792
 -0.002699
 -0.010339
 -0.012886
 -0.002699
 -0.000152
 -0.005246
 -0.005246
 -0.015432
 -0.010339
 -0.005246
 -0.007792
 -0.012886
 -0.007792
 -0.005246
 -0.005246
 -0.010339
 -0.007792
 -0.002699
 -0.005246
 -0.010339
 -0.010339
 -0.002699
 -0.010339
 -0.010339
 -0.007792
 -0.010339
  0.002395
 -0.007792
 -0.012886
 -0.012886
 -0.005246
 -0.002699
 -0.002699
 -0.025619
 -0.033259
 -0.043446
 -0.038353
 -0.056179
 -0.056179
 -0.074006
 -0.068913
 -0.051086
 -0.058726
 -0.030712
 -0.017979
  0.002395
  0.002395
  0.099169
  0.106809
  0.302905
  0.295265
  0.386946
  0.425146
   0.47608
  0.524467
  0.555028
  0.608508
  0.618695
  0.692549
   0.70019
  0.758764
   0.76895
  0.858085
  0.850445
  0.878458
  0.883552
  0.911565
  0.903925
  0.957406
  0.962499
  0.959953
  0.952313
  0.957406
  0.962499
  0.931939
  0.939579
  0.881005
  0.883552
  0.865725
  0.870818
  0.809698
  0.802057
   0.76131
  0.763857
  0.684909
  0.679816
  0.603415
  0.608508
  0.529561
  0.519374
  0.384399
  0.386946
  0.279985
  0.249424
   0.18321
  0.139916
  0.104262
  0.025315
 -0.002699
 -0.058726
  -0.07146
 -0.186061
 -0.203888
 -0.282836
 -0.282836
 -0.272649
 -0.265009
 -0.231902
 -0.236995
 -0.203888
 -0.201341
  -0.13258
 -0.127487
 -0.137674
  -0.13258
 -0.040899
 -0.043446
 -0.048539
 -0.043446
 -0.038353
 -0.045993
 -0.045993
 -0.051086
 -0.043446
 -0.038353
 -0.045993
 -0.048539
 -0.043446
 -0.040899
 -0.045993
 -0.051086
 -0.043446
 -0.035806
 -0.043446
 -0.043446
 -0.048539
 -0.043446
 -0.040899
 -0.043446
 -0.051086
 -0.051086
 -0.043446
 -0.043446
 -0.051086
 -0.043446
 -0.051086
 -0.043446
 -0.038353
 -0.043446
 -0.048539
 -0.045993
 -0.045993
 -0.038353
 -0.043446
 -0.051086
 -0.051086
 -0.043446
 -0.038353
 -0.043446
 -0.053633
 -0.045993
 -0.043446
 -0.040899
 -0.045993
 -0.053633
 -0.043446
 -0.035806
 -0.043446
 -0.043446
 -0.045993
 -0.045993
 -0.038353
 -0.043446
 -0.048539
 -0.043446
 -0.040899
 -0.038353
 -0.045993
 -0.048539
 -0.043446
 -0.051086
 -0.038353
 -0.043446
 -0.048539
 -0.045993
 -0.038353
 -0.045993
 -0.051086
 -0.043446
 -0.038353
 -0.045993
 -0.051086
 -0.043446
 -0.040899
 -0.045993
 -0.048539
 -0.051086
 -0.043446
 -0.038353
 -0.035806
 -0.040899
 -0.033259
 -0.030712
 -0.040899
 -0.035806
 -0.023072
 -0.020526
 -0.023072
 -0.030712
 -0.025619
 -0.020526
 -0.025619
 -0.028166
 -0.028166
 -0.023072
 -0.023072
 -0.023072
 -0.020526
 -0.015432
 -0.010339
 -0.017979
 -0.012886
 -0.023072
 -0.012886
 -0.010339
 -0.015432
 -0.017979
 -0.015432
 -0.002699
 -0.007792
 -0.012886
 -0.005246
 -0.002699
 -0.005246
 -0.012886
 -0.005246
 -0.007792
 -0.005246
  0.007488
 -0.002699
  0.012581
  0.017675
  0.020221
  0.015128
  0.027862
  0.030408
  0.040595
  0.032955
  0.040595
  0.038048
  0.053329
  0.058422
  0.058422
  0.053329
  0.073702
  0.076249
  0.083889
  0.076249
  0.078795
  0.078795
  0.088982
  0.096622
  0.104262
  0.101716
  0.099169
  0.119543
  0.124636
  0.129729
  0.124636
  0.129729
  0.134823
  0.139916
  0.132276
   0.14501
   0.13737
   0.14501
   0.14501
  0.150103
  0.150103
  0.142463
  0.147556
  0.150103
  0.147556
  0.150103
   0.15265
  0.157743
   0.15265
  0.157743
  0.165383
   0.16029
   0.15265
  0.155196
   0.16029
  0.129729
  0.139916
   0.14501
  0.139916
  0.134823
   0.13737
  0.142463
  0.139916
  0.132276
  0.129729
  0.129729
  0.124636
  0.127183
   0.13737
  0.129729
  0.099169
  0.099169
  0.104262
  0.099169
  0.088982
  0.096622
  0.099169
  0.088982
  0.086436
  0.091529
  0.081342
  0.086436
  0.063515
  0.068609
  0.073702
  0.071155
  0.055875
  0.066062
  0.050782
  0.045688
  0.050782
  0.055875
  0.050782
  0.045688
  0.035502
  0.048235
  0.045688
  0.035502
  0.032955
  0.035502
  0.032955
  0.027862
  0.032955
  0.035502
  0.030408
  0.025315
  0.027862
  0.025315
  0.027862
  0.022768
  0.020221
  0.025315
  0.022768
  0.027862
  0.020221
  0.015128
  0.017675
  0.027862
  0.022768
  0.012581
  0.010035
  0.010035
  0.017675
  0.015128
  0.007488
  0.012581
  0.017675
  0.017675
  0.010035
  0.007488
  0.010035
  0.007488
  0.010035
  0.002395
 -0.002699
 -0.002699
  0.002395
  0.004941
 -0.002699
 -0.002699
  0.004941
  0.004941
  0.007488
 -0.010339
 -0.010339
 -0.007792
 -0.002699
 -0.007792
 -0.012886
 -0.005246
 -0.005246
 -0.002699
 -0.005246
 -0.012886
 -0.002699
 -0.002699
 -0.007792
 -0.012886
 -0.007792
 -0.002699
 -0.007792
 -0.012886
 -0.007792
 -0.002699
 -0.007792
 -0.012886
 -0.007792
 -0.002699
 -0.007792
 -0.005246
 -0.012886
 -0.005246
 -0.005246
 -0.010339
 -0.012886
 -0.010339
  0.002395
 -0.010339
 -0.012886
 -0.007792
 -0.002699
 -0.010339
 -0.015432
 -0.010339
 -0.000152
 -0.007792
 -0.015432
 -0.007792
 -0.002699
 -0.007792
 -0.012886
 -0.007792
 -0.000152
 -0.005246
 -0.010339
 -0.012886
 -0.005246
 -0.007792
 -0.005246
 -0.010339
 -0.012886
 -0.007792
 -0.002699
 -0.005246
 -0.015432
 -0.007792
 -0.007792
 -0.012886
 -0.010339
 -0.002699
 -0.005246
 -0.010339
 -0.000152
 -0.005246
 -0.007792
 -0.007792
 -0.010339
 -0.010339
 -0.007792
 -0.005246
 -0.007792
 -0.010339
 -0.000152
 -0.010339
 -0.012886
 -0.010339
 -0.002699
 -0.010339
 -0.012886
 -0.002699
 -0.007792
 -0.012886
 -0.005246
 -0.005246
 -0.012886
 -0.005246
 -0.005246
 -0.010339
 -0.010339
 -0.002699
 -0.010339
 -0.012886
 -0.007792
 -0.002699
 -0.005246
 -0.012886
 -0.005246
 -0.005246
 -0.012886
 -0.010339
 -0.002699
 -0.010339
 -0.015432
 -0.010339
 -0.005246
 -0.012886
 -0.002699
 -0.002699
 -0.007792
 -0.012886
 -0.010339
 -0.002699
 -0.005246
 -0.012886
 -0.007792
 -0.002699
 -0.005246
 -0.010339
 -0.012886
 -0.002699
 -0.007792
 -0.012886
 -0.007792
 -0.002699
 -0.010339
 -0.010339
 -0.005246
 -0.002699
 -0.005246
 -0.010339
 -0.002699
 -0.007792
 -0.012886
 -0.002699
 -0.002699
 -0.002699
 -0.012886
 -0.007792
 -0.002699
 -0.007792
 -0.012886
 -0.010339
 -0.002699
 -0.007792
 -0.012886
 -0.007792
 -0.002699
 -0.010339
 -0.012886
 -0.005246
 -0.002699
 -0.012886
 -0.002699
 -0.002699
 -0.005246
 -0.005246
 -0.007792
 -0.002699
 -0.007792
 -0.012886
 -0.007792
 -0.005246
 -0.010339
 -0.012886
 -0.002699
 -0.005246
 -0.007792
 -0.010339
 -0.005246
 -0.002699
 -0.005246
 -0.012886
 -0.005246
 -0.002699
 -0.007792
 -0.010339
 -0.007792
 -0.002699
 -0.010339
 -0.012886
 -0.005246
 -0.005246
 -0.005246
 -0.015432
 -0.010339
 -0.002699
 -0.010339
 -0.012886
 -0.007792
 -0.005246
 -0.007792
 -0.012886
 -0.005246
 -0.005246
 -0.007792
 -0.002699
 -0.002699
 -0.005246
 -0.012886
 -0.007792
 -0.005246
 -0.007792
 -0.010339
 -0.005246
 -0.005246
 -0.012886
 -0.007792
 -0.002699
 -0.007792
 -0.012886
 -0.002699
 -0.010339
 -0.012886
 -0.010339
 -0.000152
 -0.010339
 -0.007792
 -0.005246
 -0.005246
 -0.005246
 -0.012886
 -0.005246
 -0.002699
 -0.005246
 -0.012886
 -0.010339
 -0.002699
 -0.010339
 -0.012886
 -0.005246
 -0.002699
 -0.005246
 -0.012886
 -0.005246
 -0.000152
 -0.005246
 -0.012886
 -0.007792
 -0.007792
 -0.012886
 -0.007792
 -0.002699
 -0.007792
 -0.012886
 -0.012886
 -0.005246
 -0.007792
 -0.010339
 -0.007792
 -0.002699
 -0.010339
 -0.012886
 -0.007792
 -0.002699
 -0.007792
 -0.012886
 -0.007792
 -0.002699
 -0.010339
 -0.010339
 -0.007792
 -0.007792
 -0.005246
 -0.012886
 -0.012886
 -0.002699
 -0.007792
 -0.012886
 -0.007792
 -0.002699
 -0.007792
 -0.012886
 -0.005246
 -0.005246
 -0.005246
 -0.012886
 -0.007792
 -0.002699
 -0.007792
 -0.012886
 -0.010339
 -0.002699
 -0.007792
 -0.015432
 -0.005246
 -0.002699
 -0.010339
 -0.012886
 -0.007792
 -0.002699
 -0.007792
 -0.012886
 -0.007792
  0.004941
  0.007488
  0.007488
  0.012581
  0.017675
  0.010035
  0.015128
  0.017675
  0.027862
  0.020221
  0.025315
  0.035502
  0.030408
  0.025315
  0.043142
  0.048235
  0.040595
  0.038048
  0.043142
  0.045688
  0.055875
  0.045688
  0.048235
  0.058422
  0.053329
  0.045688
  0.050782
  0.058422
  0.055875
  0.043142
  0.050782
  0.055875
  0.048235
  0.048235
  0.048235
  0.058422
  0.043142
  0.043142
  0.035502
  0.043142
  0.045688
  0.043142
  0.038048
  0.040595
  0.045688
  0.040595
  0.035502
  0.043142
  0.048235
  0.043142
  0.040595
  0.032955
  0.032955
  0.027862
  0.027862
  0.038048
  0.030408
  0.025315
  0.015128
  0.022768
  0.020221
  0.027862
  0.025315
  0.015128
  0.017675
  0.012581
  0.020221
  0.012581
  0.004941
  0.010035
  0.015128
  0.017675
  0.010035
 -0.002699
  0.004941
  0.007488
  0.004941
 -0.002699
  0.004941
 -0.005246
 -0.005246
 -0.007792
 -0.015432
 -0.007792
 -0.002699
 -0.010339
 -0.005246
 -0.010339
 -0.005246
 -0.002699
 -0.012886
 -0.010339
 -0.010339
 -0.002699
 -0.010339
 -0.012886
 -0.007792
 -0.002699
 -0.007792
 -0.012886
 -0.010339
 -0.007792
 -0.010339
 -0.012886
 -0.007792
 -0.002699
 -0.005246
 -0.015432
 -0.012886
 -0.010339
 -0.002699
 -0.005246
 -0.007792
 -0.010339
 -0.010339
 -0.005246
 -0.005246
 -0.005246
 -0.012886
 -0.005246
 -0.002699
 -0.005246
 -0.012886
 -0.005246
 -0.005246
 -0.002699
 -0.005246
 -0.012886
 -0.005246
 -0.010339
 -0.010339
 -0.010339
 -0.005246
 -0.007792
 -0.012886
 -0.007792
 -0.002699
 -0.002699
 -0.007792
 -0.012886
 -0.000152
 -0.005246
 -0.010339
 -0.007792
 -0.002699
 -0.005246
 -0.012886
 -0.007792
 -0.002699
 -0.012886
 -0.012886
 -0.010339
 -0.002699
 -0.023072
 -0.028166
 -0.040899
 -0.043446
 -0.056179
 -0.053633
  -0.07146
  -0.07146
 -0.056179
 -0.053633
 -0.025619
 -0.007792
  0.002395
  0.058422
  0.099169
  0.259611
  0.300358
  0.371666
  0.389493
   0.47608
  0.470987
  0.539748
  0.555028
  0.618695
  0.611055
  0.702736
  0.710376
   0.76131
   0.76131
  0.858085
  0.865725
  0.881005
  0.878458
  0.914112
  0.909019
  0.952313
  0.959953
  0.959953
  0.957406
  0.954859
  0.957406
  0.944673
  0.937032
  0.873365
  0.878458
  0.873365
  0.870818
  0.799511
  0.802057
   0.76895
   0.76131
  0.669629
  0.659442
  0.613602
  0.552481
  0.521921
  0.427693
  0.389493
  0.290171
  0.267251
  0.195944
  0.188303
  0.106809
  0.104262
  0.004941
 -0.002699
 -0.074006
 -0.066366
 -0.198794
 -0.203888
 -0.282836
 -0.282836
 -0.272649
 -0.265009
 -0.234448
 -0.239542
 -0.206435
 -0.198794
  -0.12494
 -0.135127
 -0.135127
 -0.127487
 -0.045993
 -0.051086
 -0.045993
 -0.045993
 -0.038353
 -0.038353
 -0.056179
 -0.045993
 -0.045993
 -0.040899
 -0.045993
 -0.053633
 -0.051086
 -0.051086
 -0.038353
 -0.040899
 -0.053633
 -0.043446
 -0.038353
 -0.045993
 -0.045993
 -0.045993
 -0.045993
 -0.035806
 -0.043446
 -0.045993
 -0.043446
 -0.038353
 -0.048539
 -0.051086
 -0.043446
 -0.043446
 -0.045993
 -0.051086
 -0.045993
 -0.040899
 -0.040899
 -0.048539
 -0.045993
 -0.045993
 -0.038353
 -0.045993
 -0.051086
 -0.043446
 -0.040899
 -0.048539
 -0.051086
 -0.040899
 -0.045993
 -0.048539
 -0.048539
 -0.043446
 -0.048539
 -0.045993
 -0.040899
 -0.045993
 -0.056179
 -0.043446
 -0.043446
 -0.048539
 -0.038353
 -0.043446
 -0.048539
 -0.038353
 -0.038353
 -0.048539
 -0.043446
 -0.043446
 -0.045993
 -0.045993
 -0.045993
 -0.038353
 -0.051086
 -0.043446
 -0.038353
 -0.045993
 -0.053633
 -0.045993
 -0.040899
 -0.045993
 -0.051086
 -0.045993
 -0.038353
 -0.038353
 -0.040899
 -0.033259
 -0.035806
 -0.030712
 -0.035806
 -0.038353
 -0.028166
 -0.020526
 -0.025619
 -0.030712
 -0.028166
 -0.015432
 -0.028166
 -0.028166
 -0.023072
 -0.017979
 -0.023072
 -0.020526
 -0.015432
 -0.012886
 -0.012886
 -0.017979
 -0.015432
 -0.010339
 -0.015432
 -0.023072
 -0.015432
 -0.012886
 -0.010339
 -0.012886
 -0.007792
 -0.002699
 -0.007792
 -0.012886
 -0.007792
 -0.000152
 -0.002699
 -0.007792
 -0.010339
  0.002395
  0.007488
  0.017675
  0.010035
  0.017675
  0.020221
  0.032955
  0.038048
  0.030408
  0.027862
  0.038048
  0.048235
  0.050782
  0.045688
  0.060969
  0.071155
  0.066062
  0.078795
  0.086436
  0.078795
  0.073702
  0.088982
  0.094076
  0.099169
  0.096622
  0.109356
  0.114449
  0.116996
  0.116996
  0.129729
  0.127183
   0.13737
  0.127183
  0.134823
   0.13737
  0.142463
   0.13737
   0.14501
  0.150103
   0.15265
  0.150103
  0.142463
   0.14501
  0.157743
  0.147556
   0.14501
  0.150103
  0.162836
  0.157743
  0.157743
  0.165383
  0.157743
   0.15265
  0.155196
  0.155196
   0.14501
  0.139916
  0.134823
  0.139916
   0.14501
  0.139916
  0.132276
  0.132276
   0.14501
  0.129729
  0.122089
  0.127183
  0.134823
  0.129729
  0.122089
  0.099169
  0.104262
  0.101716
  0.099169
  0.099169
  0.104262
  0.088982
  0.083889
  0.091529
  0.088982
  0.078795
  0.078795
  0.073702
  0.071155
  0.066062
  0.071155
  0.066062
  0.063515
  0.045688
  0.048235
  0.058422
  0.050782
  0.048235
  0.048235
  0.048235
  0.040595
  0.035502
  0.038048
  0.038048
  0.030408
  0.025315
  0.032955
  0.035502
  0.035502
  0.030408
  0.030408
  0.035502
  0.022768
  0.022768
  0.027862
  0.022768
  0.017675
  0.025315
  0.030408
  0.017675
  0.017675
  0.017675
  0.025315
  0.020221
  0.007488
  0.012581
  0.020221
  0.007488
  0.007488
  0.017675
  0.010035
  0.007488
  0.010035
  0.017675
  0.010035
  0.007488
 -0.000152
  0.010035
  0.004941
 -0.002699
  0.002395
  0.007488
  0.002395
 -0.002699
  0.002395
  0.007488
  0.004941
 -0.007792
 -0.002699
 -0.012886
 -0.007792
 -0.012886
 -0.007792
 -0.002699
 -0.005246
 -0.012886
 -0.005246
 -0.000152
 -0.005246
 -0.012886
 -0.010339
  0.002395
 -0.005246
 -0.012886
 -0.007792
 -0.000152
 -0.007792
 -0.015432
 -0.007792
 -0.000152
 -0.010339
 -0.015432
 -0.002699
 -0.005246
 -0.010339
 -0.007792
 -0.005246
 -0.010339
 -0.007792
 -0.005246
 -0.010339
 -0.012886
 -0.007792
 -0.010339
 -0.012886
 -0.007792
 -0.000152
 -0.007792
 -0.017979
 -0.005246
 -0.007792
 -0.012886
 -0.005246
 -0.002699
 -0.007792
 -0.012886
 -0.005246
  0.002395
 -0.010339
 -0.015432
 -0.010339
 -0.002699
 -0.012886
 -0.005246
 -0.000152
 -0.002699
 -0.007792
 -0.007792
 -0.007792
 -0.007792
 -0.012886
 -0.005246
 -0.002699
 -0.010339
 -0.012886
 -0.002699
 -0.002699
 -0.002699
 -0.012886
 -0.010339
 -0.002699
 -0.007792
 -0.007792
 -0.007792
 -0.002699
 -0.007792
 -0.012886
 -0.005246
 -0.005246
 -0.005246
 -0.012886
 -0.007792
 -0.002699
 -0.010339
 -0.012886
 -0.007792
 -0.002699
  0.007488
 -0.007792
 -0.005246
 -0.005246
 -0.005246
 -0.012886
 -0.007792
 -0.002699
 -0.010339
 -0.012886
 -0.005246
 -0.002699
 -0.012886
 -0.012886
 -0.007792
 -0.005246
 -0.007792
 -0.012886
 -0.005246
 -0.010339
 -0.005246
 -0.005246
 -0.015432
 -0.007792
 -0.002699
 -0.010339
 -0.010339
 -0.010339
 -0.002699
 -0.010339
 -0.010339
 -0.007792
 -0.000152
 -0.005246
 -0.012886
 -0.010339
 -0.005246
 -0.005246
 -0.012886
 -0.005246
 -0.002699
 -0.010339
 -0.012886
 -0.010339
 -0.002699
 -0.012886
 -0.010339
 -0.010339
 -0.005246
 -0.012886
 -0.007792
 -0.002699
 -0.010339
 -0.012886
 -0.005246
 -0.002699
 -0.007792
 -0.012886
 -0.005246
 -0.002699
 -0.002699
 -0.015432
 -0.007792
 -0.002699
 -0.007792
 -0.010339
 -0.007792
 -0.002699
 -0.007792
 -0.012886
 -0.007792
 -0.002699
 -0.007792
 -0.012886
 -0.010339
 -0.002699
 -0.007792
 -0.012886
 -0.007792
 -0.002699
 -0.005246
 -0.017979
 -0.007792
 -0.002699
 -0.002699
 -0.012886
 -0.007792
 -0.002699
 -0.002699
 -0.012886
 -0.002699
 -0.012886
 -0.000152
 -0.010339
 -0.012886
 -0.012886
 -0.010339
 -0.002699
 -0.005246
 -0.015432
 -0.015432
 -0.002699
 -0.012886
 -0.012886
 -0.005246
 -0.000152
 -0.010339
 -0.012886
 -0.007792
 -0.010339
 -0.010339
 -0.005246
 -0.005246
 -0.007792
 -0.012886
 -0.005246
 -0.005246
 -0.015432
 -0.005246
 -0.002699
 -0.005246
 -0.015432
 -0.010339
 -0.002699
 -0.010339
 -0.005246
 -0.002699
 -0.007792
 -0.012886
 -0.005246
 -0.002699
 -0.005246
 -0.012886
 -0.010339
 -0.002699
 -0.005246
 -0.007792
 -0.002699
 -0.010339
 -0.012886
 -0.005246
 -0.000152
 -0.005246
 -0.012886
 -0.007792
 -0.000152
 -0.015432
 -0.012886
 -0.007792
 -0.002699
 -0.007792
 -0.015432
 -0.012886
 -0.007792
 -0.005246
 -0.012886
 -0.012886
 -0.007792
 -0.002699
 -0.010339
 -0.012886
 -0.005246
  0.002395
 -0.002699
 -0.007792
 -0.010339
 -0.007792
 -0.000152
 -0.010339
 -0.012886
 -0.005246
 -0.005246
 -0.010339
 -0.012886
 -0.005246
 -0.005246
 -0.007792
 -0.010339
 -0.007792
 -0.002699
 -0.007792
 -0.010339
 -0.010339
 -0.000152
 -0.007792
 -0.015432
 -0.005246
 -0.002699
 -0.007792
 -0.012886
 -0.017979
 -0.007792
 -0.005246
 -0.012886
 -0.010339
 -0.000152
 -0.007792
 -0.012886
 -0.012886
  0.002395
 -0.010339
 -0.012886
 -0.012886
 -0.010339
 -0.005246
 -0.007792
 -0.015432
 -0.010339
 -0.002699
 -0.007792
 -0.012886
  0.002395
  0.007488
  0.015128
  0.007488
  0.012581
  0.020221
  0.022768
  0.017675
  0.025315
  0.027862
  0.027862
  0.027862
  0.030408
  0.035502
  0.040595
  0.038048
  0.043142
  0.043142
  0.038048
  0.035502
  0.053329
  0.048235
  0.045688
  0.048235
  0.058422
  0.048235
  0.048235
  0.053329
  0.058422
  0.048235
  0.048235
  0.048235
  0.058422
  0.050782
  0.050782
  0.043142
  0.043142
  0.038048
  0.043142
  0.048235
  0.038048
  0.035502
  0.040595
  0.050782
  0.040595
  0.038048
  0.043142
  0.048235
  0.040595
  0.040595
  0.040595
  0.035502
  0.027862
  0.025315
  0.032955
  0.035502
  0.035502
  0.017675
  0.022768
  0.030408
  0.017675
  0.020221
  0.030408
  0.027862
  0.017675
  0.002395
  0.017675
  0.012581
  0.010035
  0.010035
  0.022768
  0.017675
  0.007488
 -0.002699
  0.002395
  0.010035
  0.004941
 -0.000152
 -0.005246
 -0.002699
 -0.005246
 -0.012886
 -0.007792
 -0.002699
 -0.005246
 -0.012886
 -0.005246
 -0.000152
 -0.007792
 -0.005246
 -0.012886
 -0.007792
 -0.012886
 -0.007792
 -0.002699
 -0.005246
 -0.015432
 -0.010339
 -0.002699
 -0.015432
 -0.010339
 -0.002699
 -0.005246
 -0.012886
 -0.005246
 -0.005246
 -0.005246
 -0.012886
 -0.007792
 -0.007792
 -0.005246
 -0.012886
 -0.012886
 -0.007792
 -0.007792
 -0.010339
 -0.007792
 -0.002699
 -0.005246
 -0.012886
 -0.005246
 -0.002699
 -0.005246
 -0.010339
 -0.007792
 -0.002699
 -0.005246
 -0.007792
 -0.015432
 -0.010339
 -0.002699
 -0.007792
 -0.012886
 -0.007792
 -0.002699
 -0.010339
 -0.015432
 -0.005246
 -0.002699
 -0.010339
 -0.010339
 -0.007792
 -0.000152
 -0.010339
 -0.007792
 -0.012886
 -0.007792
 -0.002699
 -0.007792
 -0.012886
 -0.002699
 -0.002699
 -0.010339
 -0.033259
 -0.028166
 -0.038353
 -0.048539
 -0.056179
 -0.066366
 -0.068913
 -0.051086
 -0.053633
 -0.033259
 -0.023072
  0.007488
 -0.002699
  0.088982
  0.099169
  0.300358
  0.300358
  0.384399
  0.389493
   0.47608
   0.46844
  0.544841
  0.560121
  0.623789
  0.613602
  0.702736
  0.710376
  0.763857
   0.76131
  0.863178
  0.865725
  0.878458
  0.875912
  0.909019
  0.914112
  0.959953
  0.952313
  0.954859
  0.962499
  0.962499
  0.952313
  0.939579
  0.944673
  0.881005
  0.873365
  0.870818
  0.832618
  0.807151
   0.76895
  0.766404
  0.695096
  0.677269
  0.613602
  0.616149
  0.529561
  0.516827
  0.394586
  0.394586
  0.274891
  0.269798
   0.18321
   0.19085
  0.101716
  0.096622
  0.004941
  0.007488
 -0.076553
 -0.076553
 -0.196248
 -0.198794
 -0.282836
 -0.285382
 -0.257369
 -0.265009
 -0.236995
 -0.242088
 -0.201341
 -0.193701
 -0.130034
 -0.135127
 -0.130034
  -0.12494
 -0.045993
 -0.048539
 -0.038353
 -0.045993
 -0.051086
 -0.045993
 -0.038353
 -0.043446
 -0.051086
 -0.045993
 -0.038353
 -0.045993
 -0.053633
 -0.043446
 -0.033259
 -0.051086
 -0.051086
 -0.045993
 -0.038353
 -0.043446
 -0.045993
 -0.048539
 -0.045993
 -0.043446
 -0.048539
 -0.051086
 -0.045993
 -0.038353
 -0.043446
 -0.048539
 -0.043446
 -0.038353
 -0.045993
 -0.043446
 -0.053633
 -0.043446
 -0.038353
 -0.043446
 -0.051086
 -0.048539
 -0.038353
 -0.043446
 -0.051086
 -0.043446
 -0.038353
 -0.045993
 -0.051086
 -0.045993
 -0.040899
 -0.045993
 -0.045993
 -0.038353
 -0.043446
 -0.048539
 -0.045993
 -0.038353
 -0.045993
 -0.048539
 -0.045993
 -0.038353
 -0.051086
 -0.043446
 -0.038353
 -0.045993
 -0.051086
 -0.043446
 -0.038353
 -0.043446
 -0.051086
 -0.045993
 -0.038353
 -0.043446
 -0.051086
 -0.045993
 -0.038353
 -0.048539
 -0.051086
 -0.045993
 -0.043446
 -0.043446
 -0.048539
 -0.040899
 -0.038353
 -0.043446
 -0.035806
 -0.025619
 -0.030712
 -0.035806
 -0.038353
 -0.030712
 -0.015432
 -0.025619
 -0.028166
 -0.023072
 -0.020526
 -0.028166
 -0.025619
 -0.030712
 -0.023072
 -0.017979
 -0.025619
 -0.020526
 -0.012886
 -0.010339
 -0.015432
 -0.023072
 -0.012886
 -0.007792
 -0.015432
 -0.020526
 -0.017979
 -0.010339
 -0.017979
 -0.007792
 -0.012886
 -0.012886
 -0.002699
 -0.010339
 -0.007792
 -0.007792
 -0.002699
 -0.012886
 -0.012886
  0.004941
  0.007488
  0.007488
  0.007488
  0.022768
  0.027862
  0.027862
  0.027862
  0.027862
  0.038048
  0.048235
  0.048235
  0.048235
  0.060969
  0.068609
  0.068609
  0.066062
  0.078795
  0.086436
  0.078795
  0.073702
  0.094076
  0.099169
  0.099169
  0.096622
  0.109356
  0.114449
  0.119543
  0.116996
  0.122089
  0.127183
  0.142463
  0.129729
  0.134823
  0.139916
   0.14501
  0.139916
   0.14501
  0.150103
   0.15265
  0.147556
  0.139916
  0.147556
  0.150103
  0.150103
   0.14501
  0.147556
  0.162836
  0.157743
   0.15265
   0.15265
  0.157743
   0.16793
  0.157743
   0.13737
   0.13737
  0.142463
  0.132276
   0.13737
   0.14501
   0.13737
  0.139916
  0.139916
   0.14501
  0.129729
  0.127183
  0.129729
  0.129729
  0.129729
  0.124636
  0.096622
  0.099169
  0.099169
  0.101716
  0.091529
  0.101716
  0.096622
  0.091529
  0.083889
  0.086436
  0.081342
  0.088982
  0.071155
  0.066062
  0.071155
  0.076249
  0.066062
  0.063515
  0.045688
  0.048235
  0.055875
  0.053329
  0.053329
  0.038048
  0.043142
  0.048235
  0.040595
  0.027862
  0.035502
  0.030408
  0.035502
  0.032955
  0.027862
  0.032955
  0.032955
  0.038048
  0.035502
  0.020221
  0.020221
  0.027862
  0.022768
  0.017675
  0.025315
  0.027862
  0.027862
  0.017675
  0.017675
  0.027862
  0.022768
  0.007488
  0.012581
  0.017675
  0.015128
  0.007488
  0.010035
  0.017675
  0.012581
  0.004941
  0.010035
  0.017675
  0.007488
 -0.000152
  0.007488
  0.007488
  0.002395
  0.004941
 -0.000152
  0.002395
  0.007488
  0.002395
 -0.005246
 -0.002699
 -0.000152
 -0.002699
 -0.007792
 -0.012886
 -0.007792
 -0.002699
 -0.007792
 -0.015432
 -0.010339
 -0.002699
 -0.007792
 -0.012886
 -0.007792
 -0.010339
 -0.002699
 -0.010339
 -0.012886
 -0.007792
 -0.002699
 -0.007792
 -0.015432
 -0.010339
 -0.000152
 -0.005246
 -0.015432
 -0.010339
 -0.002699
 -0.002699
 -0.010339
 -0.012886
 -0.010339
 -0.002699
 -0.007792
 -0.012886
 -0.005246
 -0.005246
 -0.000152
 -0.010339
 -0.005246
 -0.002699
 -0.007792
 -0.010339
 -0.007792
 -0.000152
 -0.005246
 -0.012886
 -0.007792
 -0.002699
 -0.005246
 -0.012886
 -0.007792
 -0.000152
 -0.010339
 -0.012886
 -0.010339
 -0.002699
 -0.005246
 -0.012886
 -0.012886
 -0.005246
 -0.002699
 -0.005246
 -0.012886
 -0.010339
 -0.010339
 -0.002699
 -0.007792
 -0.012886
 -0.010339
 -0.005246
 -0.005246
 -0.012886
 -0.010339
 -0.002699
 -0.007792
 -0.012886
 -0.010339
 -0.002699
 -0.010339
 -0.007792
 -0.005246
 -0.002699
 -0.007792
 -0.012886
 -0.012886
 -0.005246
 -0.005246
 -0.007792
 -0.015432
 -0.007792
 -0.002699
 -0.007792
 -0.010339
 -0.007792
 -0.002699
 -0.005246
 -0.010339
 -0.012886
 -0.000152
 -0.005246
 -0.015432
 -0.010339
 -0.002699
 -0.012886
 -0.012886
 -0.015432
 -0.000152
 -0.002699
 -0.012886
 -0.012886
 -0.007792
 -0.002699
 -0.007792
 -0.012886
 -0.007792
 -0.002699
 -0.002699
 -0.010339
 -0.010339
 -0.007792
 -0.007792
 -0.007792
 -0.010339
 -0.007792
 -0.002699
 -0.010339
 -0.012886
 -0.010339
 -0.010339
 -0.002699
 -0.005246
 -0.012886
 -0.007792
 -0.002699
 -0.010339
 -0.012886
 -0.007792
 -0.002699
 -0.010339
 -0.007792
 -0.000152
 -0.005246
 -0.012886
 -0.007792
 -0.002699
 -0.005246
 -0.012886
 -0.007792
 -0.002699
 -0.005246
 -0.012886
 -0.007792
 -0.007792
 -0.012886
 -0.005246
 -0.005246
 -0.010339
 -0.012886
 -0.010339
 -0.007792
 -0.007792
 -0.007792
 -0.000152
 -0.007792
 -0.015432
 -0.005246
 -0.000152
 -0.007792
 -0.012886
 -0.010339
 -0.000152
 -0.005246
 -0.012886
 -0.005246
 -0.002699
 -0.002699
 -0.010339
 -0.015432
 -0.012886
 -0.005246
 -0.010339
 -0.015432
 -0.010339
 -0.000152
 -0.010339
 -0.010339
 -0.010339
 -0.002699
 -0.005246
 -0.015432
 -0.002699
 -0.002699
 -0.007792
 -0.012886
 -0.007792
 -0.007792
 -0.002699
 -0.007792
 -0.010339
 -0.005246
 -0.002699
 -0.007792
 -0.012886
 -0.012886
 -0.002699
 -0.010339
 -0.002699
 -0.002699
 -0.012886
 -0.015432
 -0.007792
 -0.002699
 -0.007792
 -0.012886
 -0.005246
 -0.002699
 -0.005246
 -0.012886
 -0.007792
 -0.000152
 -0.005246
 -0.012886
 -0.007792
 -0.000152
 -0.007792
 -0.015432
 -0.007792
 -0.005246
 -0.007792
 -0.017979
 -0.007792
 -0.005246
 -0.007792
 -0.012886
 -0.007792
 -0.002699
 -0.007792
 -0.012886
 -0.000152
 -0.010339
 -0.010339
 -0.007792
 -0.002699
 -0.010339
 -0.010339
 -0.007792
 -0.005246
 -0.012886
 -0.007792
 -0.000152
 -0.005246
 -0.012886
 -0.007792
 -0.002699
 -0.005246
 -0.010339
 -0.005246
 -0.002699
 -0.005246
 -0.015432
 -0.007792
 -0.002699
 -0.010339
 -0.010339
 -0.007792
 -0.012886
 -0.012886
 -0.007792
 -0.000152
 -0.012886
 -0.010339
 -0.002699
 -0.005246
 -0.012886
 -0.005246
 -0.002699
 -0.005246
 -0.012886
 -0.007792
 -0.005246
 -0.015432
 -0.010339
 -0.002699
 -0.005246
 -0.012886
 -0.010339
 -0.010339
 -0.012886
 -0.005246
 -0.010339
 -0.007792
 -0.007792
 -0.000152
 -0.005246
 -0.012886
 -0.007792
 -0.000152
 -0.012886
 -0.007792
  0.010035
  0.004941
  0.010035
  0.012581
  0.012581
  0.004941
  0.017675
  0.030408
  0.015128
  0.017675
  0.040595
  0.030408
  0.027862
  0.035502
  0.040595
  0.035502
  0.045688
  0.045688
  0.043142
  0.035502
  0.050782
  0.050782
  0.048235
  0.050782
  0.058422
  0.050782
  0.043142
  0.048235
  0.053329
  0.048235
  0.050782
  0.060969
  0.050782
  0.045688
  0.050782
  0.048235
  0.045688
  0.043142
  0.035502
  0.043142
  0.050782
  0.045688
  0.035502
  0.040595
  0.043142
  0.048235
  0.043142
  0.038048
  0.043142
  0.050782
  0.038048
  0.027862
  0.027862
  0.035502
  0.038048
  0.032955
  0.025315
  0.022768
  0.025315
  0.017675
  0.020221
  0.027862
  0.022768
  0.017675
  0.025315
  0.017675
  0.007488
  0.012581
  0.017675
  0.012581
  0.007488
  0.012581
  0.004941
 -0.005246
  0.002395
  0.010035
  0.004941
 -0.000152
 -0.002699
 -0.007792
 -0.012886
 -0.010339
 -0.005246
 -0.010339
 -0.012886
 -0.002699
 -0.005246
 -0.012886
 -0.007792
 -0.005246
 -0.007792
 -0.012886
 -0.000152
 -0.007792
 -0.012886
 -0.005246
 -0.007792
 -0.012886
 -0.005246
 -0.005246
 -0.005246
 -0.010339
 -0.007792
 -0.010339
 -0.015432
 -0.010339
 -0.000152
 -0.005246
 -0.007792
 -0.007792
 -0.005246
 -0.012886
 -0.010339
 -0.010339
 -0.010339
 -0.007792
 -0.000152
 -0.007792
 -0.012886
 -0.005246
 -0.005246
 -0.015432
 -0.007792
 -0.002699
 -0.012886
 -0.010339
 -0.005246
 -0.007792
 -0.012886
 -0.005246
 -0.005246
 -0.012886
 -0.007792
 -0.002699
 -0.012886
 -0.005246
 -0.002699
 -0.005246
 -0.012886
 -0.005246
 -0.002699
 -0.005246
 -0.012886
 -0.010339
 -0.002699
 -0.007792
 -0.012886
 -0.007792
 -0.005246
 -0.017979
 -0.012886
 -0.002699
 -0.015432
 -0.033259
 -0.033259
 -0.038353
 -0.053633
 -0.056179
 -0.066366
  -0.06382
 -0.058726
 -0.058726
 -0.030712
 -0.020526
 -0.000152
  0.002395
  0.104262
  0.099169
  0.297811
  0.300358
  0.389493
  0.389493
  0.470987
  0.473534
  0.555028
  0.547388
  0.618695
  0.623789
   0.70783
  0.697643
  0.763857
  0.763857
  0.852991
  0.860632
  0.886098
  0.881005
  0.903925
  0.909019
  0.965046
  0.957406
  0.952313
  0.954859
  0.965046
  0.944673
  0.934486
  0.898832
  0.881005
  0.865725
  0.868272
  0.809698
  0.802057
  0.763857
   0.76131
  0.677269
  0.674723
  0.611055
  0.611055
  0.524467
  0.519374
  0.386946
  0.384399
  0.267251
  0.269798
   0.19085
  0.185757
  0.099169
  0.096622
  0.004941
  0.007488
 -0.074006
   -0.0791
 -0.198794
 -0.196248
 -0.290476
 -0.282836
 -0.257369
 -0.262462
 -0.236995
 -0.242088
 -0.201341
 -0.198794
 -0.130034
 -0.135127
 -0.130034
 -0.084193
 -0.043446
 -0.051086
 -0.040899
 -0.040899
 -0.038353
 -0.045993
 -0.043446
 -0.040899
 -0.043446
 -0.045993
 -0.051086
 -0.045993
 -0.038353
 -0.045993
 -0.051086
 -0.048539
 -0.045993
 -0.038353
 -0.043446
 -0.038353
 -0.048539
 -0.043446
 -0.035806
 -0.043446
 -0.040899
 -0.051086
 -0.043446
 -0.040899
 -0.045993
 -0.048539
 -0.045993
 -0.038353
 -0.043446
 -0.051086
 -0.045993
 -0.038353
 -0.040899
 -0.043446
 -0.051086
 -0.045993
 -0.043446
 -0.045993
 -0.053633
 -0.051086
 -0.040899
 -0.040899
 -0.043446
 -0.051086
 -0.048539
 -0.040899
 -0.043446
 -0.053633
 -0.045993
 -0.038353
 -0.045993
 -0.051086
 -0.045993
 -0.035806
 -0.043446
 -0.048539
 -0.043446
 -0.038353
 -0.051086
 -0.043446
 -0.045993
 -0.045993
 -0.051086
 -0.043446
 -0.045993
 -0.051086
 -0.045993
 -0.038353
 -0.043446
 -0.048539
 -0.038353
 -0.035806
 -0.043446
 -0.051086
 -0.045993
 -0.038353
 -0.043446
 -0.051086
 -0.043446
 -0.033259
 -0.033259
 -0.038353
 -0.038353
 -0.025619
 -0.033259
 -0.033259
 -0.025619
 -0.020526
 -0.023072
 -0.035806
 -0.023072
 -0.015432
 -0.025619
 -0.025619
 -0.023072
 -0.025619
 -0.025619
 -0.012886
 -0.010339
 -0.015432
 -0.020526
 -0.012886
 -0.015432
 -0.010339
 -0.012886
 -0.023072
 -0.015432
 -0.012886
 -0.012886
 -0.012886
 -0.010339
 -0.002699
 -0.007792
 -0.012886
 -0.007792
 -0.002699
 -0.012886
 -0.007792
 -0.002699
  0.004941
  0.002395
  0.010035
  0.025315
  0.022768
  0.027862
  0.040595
  0.032955
  0.027862
  0.040595
  0.045688
  0.050782
  0.048235
  0.068609
  0.060969
  0.066062
  0.068609
  0.086436
  0.083889
  0.076249
  0.078795
  0.094076
  0.094076
  0.099169
  0.104262
  0.111903
  0.106809
  0.119543
  0.127183
  0.124636
  0.129729
  0.132276
  0.129729
  0.134823
   0.13737
  0.142463
   0.13737
  0.139916
  0.147556
   0.15265
  0.150103
  0.139916
  0.147556
  0.150103
  0.150103
  0.142463
  0.157743
   0.16029
  0.157743
   0.15265
  0.157743
   0.16029
  0.157743
  0.155196
   0.13737
   0.14501
  0.142463
   0.13737
  0.129729
  0.139916
  0.139916
  0.134823
  0.139916
  0.142463
  0.127183
  0.124636
  0.129729
  0.132276
  0.129729
  0.124636
  0.099169
  0.104262
  0.096622
  0.096622
  0.106809
  0.099169
  0.086436
  0.091529
  0.096622
  0.091529
  0.073702
  0.076249
  0.076249
  0.071155
  0.068609
  0.063515
  0.066062
  0.055875
  0.045688
  0.053329
  0.055875
  0.053329
  0.043142
  0.043142
  0.045688
  0.038048
  0.043142
  0.032955
  0.032955
  0.027862
  0.030408
  0.035502
  0.027862
  0.027862
  0.032955
  0.038048
  0.032955
  0.017675
  0.025315
  0.025315
  0.015128
  0.020221
  0.027862
  0.025315
  0.015128
  0.025315
  0.027862
  0.020221
  0.020221
  0.017675
  0.012581
  0.004941
  0.007488
  0.017675
  0.012581
  0.012581
  0.017675
  0.010035
  0.007488
  0.015128
  0.007488
 -0.000152
  0.004941
  0.007488
  0.007488
 -0.002699
  0.002395
  0.010035
 -0.002699
  0.004941
  0.007488
  0.002395
 -0.010339
 -0.010339
 -0.002699
 -0.010339
 -0.012886
 -0.010339
 -0.007792
 -0.012886
 -0.010339
 -0.005246
 -0.007792
 -0.010339
 -0.000152
 -0.010339
 -0.010339
 -0.010339
 -0.005246
 -0.005246
 -0.015432
 -0.002699
 -0.002699
 -0.012886
 -0.007792
 -0.002699
 -0.007792
 -0.012886
 -0.005246
 -0.002699
 -0.010339
 -0.007792
 -0.002699
 -0.007792
 -0.007792
 -0.005246
 -0.005246
 -0.007792
 -0.002699
 -0.010339
 -0.012886
 -0.010339
 -0.002699
 -0.012886
 -0.005246
 -0.005246
 -0.005246
 -0.012886
 -0.007792
 -0.005246
 -0.012886
 -0.007792
 -0.005246
 -0.000152
 -0.010339
 -0.007792
 -0.005246
 -0.010339
 -0.010339
 -0.007792
 -0.005246
 -0.005246
 -0.012886
 -0.005246
 -0.002699
 -0.007792
 -0.012886
 -0.002699
 -0.010339
 -0.015432
 -0.007792
 -0.002699
 -0.007792
 -0.012886
 -0.005246
 -0.005246
 -0.012886
 -0.005246
 -0.002699
 -0.015432
 -0.007792
 -0.002699
 -0.005246
 -0.012886
 -0.002699
 -0.010339
 -0.012886
 -0.010339
 -0.005246
 -0.007792
 -0.007792
 -0.000152
 -0.007792
 -0.012886
 -0.010339
 -0.002699
 -0.005246
 -0.007792
 -0.005246
 -0.005246
 -0.012886
 -0.012886
 -0.010339
 -0.012886
 -0.007792
 -0.002699
 -0.007792
 -0.012886
 -0.007792
 -0.002699
 -0.010339
 -0.015432
 -0.007792
 -0.002699
 -0.007792
 -0.010339
 -0.002699
 -0.007792
 -0.012886
 -0.005246
 -0.002699
 -0.007792
 -0.010339
 -0.012886
 -0.002699
 -0.007792
 -0.010339
 -0.005246
 -0.002699
 -0.005246
 -0.012886
 -0.010339
 -0.002699
 -0.007792
 -0.012886
 -0.002699
 -0.010339
 -0.010339
 -0.007792
 -0.002699
 -0.012886
 -0.012886
 -0.005246
 -0.007792
 -0.010339
 -0.007792
 -0.002699
 -0.010339
 -0.010339
 -0.002699
 -0.005246
 -0.012886
 -0.005246
 -0.002699
 -0.012886
 -0.007792
  0.002395
 -0.012886
 -0.010339
 -0.002699
 -0.007792
 -0.012886
 -0.007792
 -0.002699
 -0.010339
 -0.012886
 -0.010339
 -0.002699
 -0.015432
 -0.010339
 -0.012886
 -0.002699
 -0.010339
 -0.012886
 -0.010339
 -0.002699
 -0.012886
 -0.012886
 -0.010339
 -0.007792
 -0.002699
 -0.005246
 -0.012886
 -0.007792
 -0.000152
 -0.005246
 -0.012886
 -0.010339
  0.002395
 -0.002699
 -0.007792
 -0.010339
 -0.007792
 -0.002699
 -0.010339
 -0.010339
 -0.010339
 -0.002699
 -0.007792
 -0.012886
 -0.007792
 -0.005246
 -0.007792
 -0.012886
 -0.005246
 -0.002699
 -0.010339
 -0.012886
 -0.007792
 -0.002699
 -0.007792
 -0.007792
 -0.010339
 -0.012886
 -0.002699
 -0.010339
 -0.010339
 -0.005246
 -0.002699
 -0.010339
 -0.010339
 -0.007792
 -0.012886
 -0.002699
 -0.010339
 -0.012886
 -0.007792
 -0.002699
 -0.005246
 -0.010339
 -0.007792
 -0.002699
 -0.007792
 -0.012886
 -0.007792
 -0.010339
 -0.002699
 -0.007792
 -0.012886
 -0.007792
 -0.002699
 -0.005246
 -0.010339
 -0.007792
 -0.000152
 -0.005246
 -0.010339
 -0.005246
 -0.005246
 -0.002699
 -0.007792
 -0.012886
 -0.010339
 -0.002699
 -0.010339
 -0.012886
 -0.005246
 -0.005246
 -0.005246
 -0.012886
 -0.007792
  0.004941
 -0.010339
 -0.012886
 -0.010339
 -0.002699
 -0.007792
 -0.012886
 -0.007792
 -0.010339
 -0.012886
 -0.000152
 -0.002699
 -0.007792
 -0.017979
 -0.007792
 -0.002699
 -0.007792
 -0.012886
 -0.005246
 -0.005246
 -0.012886
 -0.007792
 -0.002699
 -0.005246
 -0.012886
 -0.007792
 -0.002699
 -0.005246
 -0.012886
 -0.010339
 -0.007792
 -0.010339
 -0.012886
 -0.007792
 -0.002699
 -0.007792
 -0.007792
 -0.002699
 -0.010339
 -0.010339
 -0.007792
 -0.002699
  0.004941
  0.002395
  0.017675
  0.015128
  0.007488
  0.015128
  0.027862
  0.025315
  0.020221
  0.027862
  0.030408
  0.027862
  0.035502
  0.038048
  0.043142
  0.035502
  0.045688
  0.043142
  0.038048
  0.048235
  0.058422
  0.048235
  0.048235
  0.055875
  0.055875
  0.045688
  0.050782
  0.058422
  0.045688
  0.050782
  0.058422
  0.053329
  0.045688
  0.058422
  0.053329
  0.040595
  0.050782
  0.043142
  0.038048
  0.045688
  0.043142
  0.035502
  0.045688
  0.043142
  0.038048
  0.045688
  0.043142
  0.038048
  0.043142
  0.043142
  0.045688
  0.032955
  0.040595
  0.030408
  0.025315
  0.030408
  0.035502
  0.015128
  0.022768
  0.027862
  0.020221
  0.017675
  0.022768
  0.027862
  0.015128
  0.015128
  0.017675
  0.017675
  0.007488
  0.007488
  0.017675
  0.010035
 -0.002699
  0.002395
  0.007488
  0.002395
 -0.002699
 -0.000152
 -0.000152
 -0.010339
 -0.012886
 -0.007792
 -0.002699
 -0.005246
 -0.012886
 -0.007792
 -0.010339
 -0.002699
 -0.005246
 -0.015432
 -0.007792
 -0.002699
 -0.007792
 -0.012886
 -0.012886
 -0.005246
 -0.002699
 -0.005246
 -0.012886
 -0.007792
 -0.002699
 -0.005246
 -0.012886
 -0.007792
 -0.002699
 -0.002699
 -0.007792
 -0.010339
 -0.002699
 -0.007792
 -0.007792
 -0.010339
 -0.005246
 -0.005246
 -0.005246
 -0.012886
 -0.007792
 -0.002699
 -0.005246
 -0.010339
 -0.010339
  0.002395
 -0.005246
 -0.012886
 -0.010339
 -0.000152
 -0.007792
 -0.015432
 -0.007792
 -0.005246
 -0.010339
 -0.010339
 -0.010339
 -0.005246
 -0.010339
 -0.012886
 -0.005246
 -0.000152
 -0.007792
 -0.012886
 -0.005246
 -0.000152
 -0.007792
 -0.012886
 -0.005246
 -0.005246
 -0.005246
 -0.007792
 -0.020526
 -0.010339
 -0.002699
 -0.010339
 -0.030712
 -0.030712
 -0.045993
 -0.035806
 -0.053633
 -0.058726
 -0.074006
  -0.07146
 -0.048539
 -0.051086
 -0.025619
 -0.030712
  0.002395
  0.007488
  0.099169
  0.099169
  0.295265
  0.297811
  0.394586
  0.389493
   0.46844
   0.47608
  0.557575
  0.552481
  0.613602
  0.613602
  0.710376
  0.705283
  0.758764
  0.763857
  0.865725
  0.865725
  0.873365
  0.893739
  0.914112
  0.944673
  0.949766
  0.959953
  0.959953
  0.957406
  0.957406
  0.934486
  0.939579
  0.886098
  0.883552
  0.870818
  0.865725
  0.804604
  0.802057
   0.76895
  0.763857
  0.672176
  0.677269
  0.608508
  0.613602
  0.524467
  0.519374
  0.389493
  0.392039
  0.274891
  0.267251
  0.185757
   0.19085
  0.099169
  0.094076
 -0.002699
  0.004941
 -0.066366
 -0.074006
 -0.203888
 -0.196248
 -0.285382
 -0.277742
 -0.265009
 -0.257369
 -0.239542
 -0.206435
 -0.201341
 -0.147861
  -0.13258
 -0.127487
  -0.13258
 -0.056179
 -0.038353
 -0.045993
 -0.048539
 -0.048539
 -0.038353
 -0.043446
 -0.043446
 -0.038353
 -0.045993
 -0.051086
 -0.043446
 -0.038353
 -0.045993
 -0.048539
 -0.043446
 -0.038353
 -0.043446
 -0.051086
 -0.045993
 -0.038353
 -0.045993
 -0.053633
 -0.043446
 -0.035806
 -0.045993
 -0.048539
 -0.043446
 -0.038353
 -0.045993
 -0.051086
 -0.045993
 -0.038353
 -0.043446
 -0.051086
 -0.043446
 -0.038353
 -0.045993
 -0.051086
 -0.045993
 -0.038353
 -0.043446
 -0.048539
 -0.038353
 -0.035806
 -0.043446
 -0.045993
 -0.051086
 -0.043446
 -0.040899
 -0.045993
 -0.051086
 -0.038353
 -0.043446
 -0.043446
 -0.043446
 -0.040899
 -0.043446
 -0.048539
 -0.045993
 -0.043446
 -0.043446
 -0.051086
 -0.035806
 -0.043446
 -0.045993
 -0.051086
 -0.043446
 -0.035806
 -0.045993
 -0.045993
 -0.043446
 -0.043446
 -0.048539
 -0.043446
 -0.038353
 -0.045993
 -0.048539
 -0.038353
 -0.043446
 -0.048539
 -0.043446
 -0.040899
 -0.045993
 -0.043446
 -0.033259
 -0.028166
 -0.033259
 -0.038353
 -0.030712
 -0.023072
 -0.030712
 -0.023072
 -0.023072
 -0.023072
 -0.028166
 -0.023072
 -0.017979
 -0.030712
 -0.028166
 -0.023072
 -0.023072
 -0.015432
 -0.017979
 -0.012886
 -0.007792
 -0.017979
 -0.017979
 -0.017979
 -0.012886
 -0.017979
 -0.020526
 -0.012886
 -0.012886
 -0.005246
 -0.017979
 -0.005246
 -0.002699
 -0.005246
 -0.010339
 -0.005246
 -0.002699
 -0.005246
 -0.005246
  0.004941
  0.015128
  0.015128
  0.017675
  0.022768
  0.035502
  0.027862
  0.027862
  0.030408
  0.045688
  0.035502
  0.050782
  0.058422
  0.066062
  0.058422
  0.063515
  0.068609
  0.086436
  0.078795
  0.083889
  0.083889
  0.088982
  0.091529
  0.096622
  0.099169
  0.106809
  0.114449
  0.119543
  0.119543
  0.124636
  0.124636
  0.134823
  0.129729
  0.134823
  0.139916
  0.150103
  0.150103
  0.147556
  0.142463
  0.147556
  0.150103
  0.147556
  0.142463
  0.150103
   0.15265
  0.150103
  0.155196
  0.155196
   0.16029
  0.165383
  0.157743
   0.15265
  0.157743
   0.16029
  0.139916
   0.13737
  0.139916
  0.139916
   0.14501
  0.139916
  0.134823
  0.139916
  0.139916
   0.13737
  0.127183
  0.127183
   0.13737
  0.129729
  0.124636
  0.127183
  0.106809
  0.101716
  0.099169
  0.099169
  0.099169
  0.091529
  0.091529
  0.094076
  0.088982
  0.078795
  0.081342
  0.076249
  0.068609
  0.066062
  0.071155
  0.058422
  0.060969
  0.055875
  0.045688
  0.050782
  0.045688
  0.055875
  0.053329
  0.040595
  0.035502
  0.043142
  0.048235
  0.030408
  0.025315
  0.035502
  0.035502
  0.030408
  0.025315
  0.027862
  0.038048
  0.035502
  0.027862
  0.017675
  0.027862
  0.017675
  0.017675
  0.022768
  0.027862
  0.025315
  0.017675
  0.027862
  0.022768
  0.015128
  0.017675
  0.017675
  0.010035
  0.007488
  0.012581
  0.017675
  0.012581
  0.004941
  0.015128
  0.017675
  0.017675
  0.007488
  0.004941
  0.007488
  0.007488
 -0.000152
  0.007488
  0.004941
 -0.002699
  0.004941
  0.007488
  0.002395
 -0.002699
  0.002395
 -0.005246
 -0.007792
 -0.012886
 -0.007792
 -0.000152
 -0.012886
 -0.012886
 -0.012886
 -0.007792
 -0.002699
 -0.007792
 -0.012886
 -0.010339
 -0.005246
 -0.002699
 -0.010339
 -0.012886
 -0.005246
 -0.005246
 -0.005246
 -0.012886
 -0.005246
 -0.002699
 -0.007792
 -0.010339
 -0.010339
 -0.002699
 -0.002699
 -0.005246
 -0.012886
 -0.007792
 -0.000152
 -0.002699
 -0.012886
 -0.007792
 -0.005246
 -0.010339
 -0.012886
 -0.005246
 -0.002699
 -0.000152
 -0.010339
 -0.012886
 -0.007792
 -0.005246
 -0.007792
 -0.017979
 -0.010339
 -0.005246
 -0.007792
 -0.012886
 -0.005246
 -0.005246
 -0.000152
 -0.012886
 -0.012886
 -0.002699
 -0.000152
 -0.005246
 -0.012886
 -0.002699
 -0.012886
 -0.012886
 -0.005246
  0.002395
 -0.010339
 -0.012886
 -0.007792
 -0.005246
 -0.005246
 -0.010339
 -0.012886
 -0.007792
 -0.002699
 -0.005246
 -0.015432
 -0.007792
 -0.007792
 -0.002699
 -0.007792
 -0.012886
 -0.010339
 -0.002699
 -0.010339
 -0.012886
 -0.005246
 -0.002699
 -0.002699
 -0.012886
 -0.007792
 -0.002699
 -0.005246
 -0.007792
 -0.005246
 -0.007792
 -0.010339
 -0.005246
 -0.000152
 -0.005246
 -0.012886
 -0.005246
 -0.002699
 -0.005246
 -0.012886
 -0.007792
 -0.005246
 -0.005246
 -0.012886
 -0.002699
 -0.005246
 -0.012886
 -0.005246
 -0.002699
 -0.007792
 -0.010339
 -0.010339
 -0.002699
 -0.015432
 -0.005246
 -0.002699
 -0.005246
 -0.012886
 -0.010339
 -0.005246
 -0.010339
 -0.007792
 -0.005246
 -0.010339
 -0.015432
 -0.000152
 -0.007792
 -0.010339
 -0.012886
 -0.002699
 -0.005246
 -0.012886
 -0.010339
 -0.002699
 -0.010339
 -0.007792
 -0.002699
 -0.007792
 -0.015432
 -0.010339
 -0.005246
 -0.012886
 -0.010339
 -0.000152
 -0.010339
 -0.012886
 -0.007792
 -0.002699
 -0.005246
 -0.012886
 -0.002699
 -0.007792
 -0.012886
 -0.007792
 -0.005246
 -0.010339
 -0.012886
 -0.010339
 -0.005246
 -0.010339
 -0.007792
 -0.002699
 -0.012886
 -0.012886
 -0.007792
 -0.002699
 -0.007792
 -0.012886
 -0.007792
 -0.005246
 -0.012886
 -0.005246
 -0.000152
 -0.007792
 -0.012886
 -0.002699
 -0.010339
 -0.010339
 -0.002699
 -0.007792
 -0.015432
 -0.002699
 -0.010339
 -0.012886
 -0.007792
 -0.007792
 -0.012886
 -0.007792
 -0.010339
 -0.012886
 -0.007792
 -0.005246
 -0.015432
 -0.007792
 -0.007792
 -0.012886
 -0.010339
 -0.005246
 -0.012886
 -0.012886
 -0.002699
 -0.010339
 -0.010339
 -0.002699
 -0.005246
 -0.015432
 -0.010339
 -0.002699
 -0.005246
 -0.012886
 -0.007792
 -0.002699
 -0.007792
 -0.012886
 -0.002699
 -0.002699
 -0.012886
 -0.007792
 -0.002699
 -0.007792
 -0.012886
 -0.005246
 -0.000152
 -0.010339
 -0.012886
 -0.007792
 -0.002699
 -0.012886
 -0.010339
 -0.005246
 -0.007792
 -0.012886
 -0.005246
 -0.002699
 -0.010339
 -0.012886
 -0.002699
 -0.007792
 -0.012886
 -0.005246
 -0.002699
 -0.005246
 -0.012886
 -0.007792
 -0.002699
 -0.005246
 -0.012886
 -0.007792
 -0.007792
 -0.010339
 -0.007792
 -0.005246
 -0.010339
 -0.015432
 -0.007792
 -0.002699
 -0.010339
 -0.015432
 -0.007792
 -0.005246
 -0.005246
 -0.012886
 -0.012886
 -0.010339
 -0.012886
 -0.007792
 -0.005246
 -0.007792
 -0.012886
 -0.012886
 -0.002699
 -0.005246
 -0.012886
 -0.010339
 -0.010339
 -0.010339
 -0.010339
 -0.002699
 -0.010339
 -0.012886
 -0.007792
 -0.000152
 -0.010339
 -0.015432
 -0.007792
 -0.002699
 -0.005246
 -0.005246
 -0.002699
 -0.010339
 -0.012886
 -0.007792
 -0.007792
 -0.010339
 -0.007792
  0.007488
 -0.000152
  0.015128
  0.017675
  0.015128
  0.015128
  0.030408
  0.020221
  0.015128
  0.022768
  0.035502
  0.025315
  0.030408
  0.043142
  0.040595
  0.043142
  0.048235
  0.040595
  0.032955
  0.048235
  0.055875
  0.045688
  0.053329
  0.058422
  0.050782
  0.045688
  0.050782
  0.058422
  0.058422
  0.048235
  0.050782
  0.058422
  0.050782
  0.045688
  0.050782
  0.045688
  0.040595
  0.040595
  0.040595
  0.043142
  0.043142
  0.035502
  0.043142
  0.043142
  0.048235
  0.038048
  0.038048
  0.035502
  0.048235
  0.038048
  0.040595
  0.035502
  0.030408
  0.027862
  0.030408
  0.035502
  0.030408
  0.015128
  0.017675
  0.022768
  0.017675
  0.022768
  0.025315
  0.020221
  0.007488
  0.015128
  0.010035
  0.007488
  0.017675
  0.017675
  0.012581
  0.012581
  0.007488
  0.002395
 -0.010339
  0.004941
  0.007488
 -0.005246
 -0.012886
 -0.010339
 -0.002699
 -0.007792
 -0.015432
 -0.007792
 -0.005246
 -0.015432
 -0.012886
 -0.005246
 -0.002699
 -0.005246
 -0.007792
 -0.002699
 -0.007792
 -0.012886
 -0.010339
 -0.000152
 -0.007792
 -0.012886
 -0.010339
 -0.002699
 -0.010339
 -0.017979
 -0.010339
 -0.000152
 -0.007792
 -0.005246
 -0.000152
 -0.007792
 -0.005246
 -0.007792
 -0.002699
 -0.005246
 -0.012886
 -0.007792
 -0.002699
 -0.007792
 -0.012886
 -0.005246
 -0.007792
 -0.012886
 -0.012886
 -0.007792
 -0.002699
 -0.010339
 -0.007792
 -0.005246
 -0.000152
 -0.005246
 -0.012886
 -0.005246
  0.002395
 -0.007792
 -0.012886
 -0.007792
 -0.000152
 -0.010339
 -0.012886
 -0.007792
  0.002395
 -0.005246
 -0.012886
 -0.007792
 -0.002699
 -0.007792
 -0.012886
 -0.010339
 -0.002699
 -0.005246
 -0.010339
 -0.007792
 -0.002699
 -0.005246
 -0.030712
 -0.023072
 -0.038353
 -0.045993
 -0.053633
 -0.051086
 -0.066366
 -0.074006
 -0.053633
 -0.048539
 -0.023072
 -0.030712
  0.002395
  0.004941
  0.099169
  0.096622
  0.297811
  0.305452
  0.384399
  0.389493
  0.478627
   0.47608
  0.547388
  0.549934
  0.623789
  0.641616
   0.70019
   0.73839
  0.763857
  0.832618
  0.860632
  0.888645
  0.878458
  0.903925
  0.914112
  0.952313
  0.949766
  0.954859
  0.965046
  0.957406
  0.952313
  0.937032
  0.939579
  0.873365
  0.875912
  0.878458
  0.870818
  0.804604
  0.809698
   0.76131
   0.76131
  0.677269
  0.679816
  0.611055
  0.605962
  0.529561
  0.527014
  0.384399
  0.386946
  0.279985
  0.274891
  0.178117
  0.188303
  0.109356
  0.099169
 -0.002699
  0.002395
 -0.074006
 -0.137674
 -0.198794
 -0.257369
 -0.285382
 -0.277742
 -0.267555
 -0.242088
 -0.239542
 -0.203888
 -0.196248
 -0.135127
 -0.135127
 -0.130034
 -0.127487
 -0.043446
 -0.051086
 -0.043446
 -0.043446
 -0.045993
 -0.040899
 -0.040899
 -0.043446
 -0.051086
 -0.045993
 -0.038353
 -0.040899
 -0.051086
 -0.043446
 -0.038353
 -0.043446
 -0.051086
 -0.045993
 -0.038353
 -0.051086
 -0.048539
 -0.045993
 -0.038353
 -0.051086
 -0.048539
 -0.045993
 -0.038353
 -0.043446
 -0.048539
 -0.045993
 -0.038353
 -0.043446
 -0.048539
 -0.045993
 -0.038353
 -0.045993
 -0.048539
 -0.038353
 -0.043446
 -0.051086
 -0.045993
 -0.043446
 -0.038353
 -0.038353
 -0.053633
 -0.048539
 -0.045993
 -0.038353
 -0.038353
 -0.045993
 -0.048539
 -0.043446
 -0.045993
 -0.035806
 -0.045993
 -0.051086
 -0.045993
 -0.045993
 -0.040899
 -0.045993
 -0.051086
 -0.048539
 -0.045993
 -0.035806
 -0.043446
 -0.051086
 -0.045993
 -0.040899
 -0.043446
 -0.048539
 -0.051086
 -0.043446
 -0.038353
 -0.043446
 -0.045993
 -0.043446
 -0.038353
 -0.045993
 -0.048539
 -0.045993
 -0.038353
 -0.045993
 -0.048539
 -0.045993
 -0.025619
 -0.035806
 -0.040899
 -0.033259
 -0.030712
 -0.033259
 -0.030712
 -0.023072
 -0.023072
 -0.023072
 -0.028166
 -0.023072
 -0.030712
 -0.030712
 -0.028166
 -0.017979
 -0.023072
 -0.030712
 -0.012886
 -0.005246
 -0.017979
 -0.015432
 -0.012886
 -0.015432
 -0.017979
 -0.015432
 -0.010339
 -0.012886
 -0.012886
 -0.012886
 -0.005246
 -0.002699
 -0.002699
 -0.002699
 -0.012886
 -0.007792
 -0.002699
 -0.002699
 -0.007792
  0.002395
 -0.005246
  0.010035
  0.020221
  0.022768
  0.017675
  0.030408
  0.038048
  0.030408
  0.027862
  0.038048
  0.040595
  0.050782
  0.053329
  0.068609
  0.066062
  0.066062
  0.071155
  0.076249
  0.073702
  0.073702
  0.088982
  0.083889
  0.088982
  0.106809
  0.101716
  0.106809
  0.114449
  0.119543
  0.116996
  0.132276
  0.127183
  0.127183
   0.13737
  0.139916
  0.139916
  0.132276
   0.15265
  0.150103
  0.139916
  0.150103
   0.15265
  0.150103
  0.147556
  0.150103
  0.150103
  0.147556
  0.155196
  0.157743
  0.162836
  0.157743
  0.150103
  0.157743
  0.162836
  0.157743
   0.13737
  0.134823
   0.14501
  0.139916
  0.129729
   0.14501
  0.139916
  0.132276
  0.139916
   0.14501
  0.129729
  0.127183
  0.129729
  0.134823
  0.129729
  0.122089
  0.096622
  0.104262
  0.096622
  0.094076
  0.099169
  0.096622
  0.091529
  0.083889
  0.088982
  0.088982
  0.076249
  0.068609
  0.076249
  0.068609
  0.066062
  0.060969
  0.068609
  0.053329
  0.048235
  0.053329
  0.050782
  0.045688
  0.050782
  0.045688
  0.040595
  0.035502
  0.043142
  0.038048
  0.030408
  0.025315
  0.032955
  0.038048
  0.032955
  0.027862
  0.032955
  0.027862
  0.030408
  0.022768
  0.027862
  0.022768
  0.017675
  0.020221
  0.022768
  0.030408
  0.022768
  0.017675
  0.022768
  0.025315
  0.012581
  0.007488
  0.010035
  0.015128
  0.012581
  0.007488
  0.012581
  0.017675
  0.010035
  0.010035
  0.015128
  0.015128
 -0.005246
  0.002395
  0.007488
 -0.000152
  0.002395
  0.007488
  0.002395
 -0.000152
  0.002395
  0.012581
  0.007488
 -0.002699
 -0.010339
 -0.000152
 -0.007792
 -0.012886
  0.002395
 -0.002699
 -0.010339
 -0.015432
 -0.012886
 -0.005246
 -0.007792
 -0.010339
 -0.012886
 -0.005246
 -0.000152
 -0.007792
 -0.012886
 -0.007792
 -0.002699
 -0.005246
 -0.010339
 -0.007792
 -0.005246
 -0.002699
 -0.005246
 -0.010339
 -0.007792
 -0.005246
 -0.010339
 -0.012886
 -0.012886
 -0.000152
 -0.010339
 -0.017979
 -0.012886
 -0.002699
 -0.010339
 -0.012886
 -0.007792
 -0.005246
 -0.007792
 -0.012886
 -0.010339
 -0.000152
 -0.010339
 -0.007792
 -0.000152
 -0.005246
 -0.012886
 -0.010339
 -0.002699
 -0.007792
 -0.012886
 -0.002699
 -0.007792
 -0.012886
 -0.007792
 -0.002699
 -0.002699
 -0.007792
 -0.005246
 -0.010339
 -0.012886
 -0.005246
 -0.005246
 -0.005246
 -0.012886
 -0.005246
 -0.005246
 -0.015432
 -0.007792
 -0.002699
 -0.007792
 -0.005246
 -0.005246
 -0.007792
 -0.015432
 -0.010339
 -0.000152
 -0.007792
 -0.007792
 -0.000152
 -0.007792
 -0.015432
 -0.007792
 -0.000152
 -0.010339
 -0.005246
 -0.002699
 -0.002699
 -0.007792
 -0.012886
 -0.002699
 -0.010339
 -0.012886
 -0.010339
 -0.005246
 -0.010339
 -0.007792
 -0.002699
 -0.010339
 -0.012886
 -0.005246
 -0.002699
 -0.010339
 -0.012886
 -0.007792
 -0.000152
 -0.012886
 -0.012886
 -0.007792
 -0.005246
 -0.005246
