5000
1000
 -0.010683
  -0.00941
  0.009049
 -0.001136
  0.009685
  0.012868
  0.014141
  0.007139
  0.008412
  0.015414
   0.01796
  0.016687
  0.009049
   0.01796
  0.018596
  0.016687
  0.027508
  0.028781
  0.028144
  0.027508
  0.026235
  0.018596
  0.019233
   0.01796
  0.015414
   0.01796
   0.01796
  0.017323
  0.015414
  0.017323
  0.028144
   0.01796
  0.017323
  0.019233
  0.019869
  0.018596
  0.026871
  0.017323
  0.019869
  0.007776
  0.019233
  0.019233
  0.019233
  0.008412
  0.009049
  0.009049
  0.016687
  0.009049
  0.003957
 -0.000499
 -0.000499
  0.007139
  0.000774
 -0.000499
  0.000774
  0.000137
 -0.010683
 -0.010683
 -0.010683
 -0.008774
 -0.010047
  -0.01132
 -0.010683
 -0.010047
 -0.008774
 -0.008774
  -0.01132
 -0.010047
 -0.008774
 -0.010683
  -0.01132
 -0.010683
 -0.010047
 -0.010683
 -0.010683
  -0.00941
 -0.010047
 -0.010047
  -0.01132
 -0.010047
 -0.010683
 -0.010683
  -0.01132
 -0.010047
 -0.010047
 -0.010683
  -0.01132
 -0.010683
  -0.00941
 -0.010047
 -0.011956
 -0.010047
 -0.010047
 -0.010047
 -0.010683
 -0.010683
 -0.010047
 -0.010047
 -0.010683
  -0.00941
  0.025598
 -0.010047
 -0.003045
 -0.020868
 -0.001136
 -0.020868
 -0.039963
 -0.041873
 -0.068606
 -0.048238
 -0.174904
 -0.090248
 -0.290114
 -0.115072
 -0.203547
 -0.146898
 -0.232827
 -0.144352
 -0.288841
 -0.116981
 -0.202274
  -0.12462
 -0.183815
 -0.127166
 -0.223279
 -0.096613
 -0.115708
 -0.069879
 -0.144352
 -0.057149
 -0.055876
 -0.050147
  -0.03869
 -0.015775
 -0.010683
  0.042147
    0.0326
  0.088613
  0.054241
  0.084157
  0.050422
   0.12935
  0.078429
  0.225464
  0.086704
  0.217826
  0.098797
  0.210187
   0.11662
  0.201913
  0.105162
  0.192365
  0.115983
  0.287206
  0.093705
  0.221008
  0.125531
  0.208914
  0.066972
   0.04724
   0.04724
 -0.020868
  0.007776
 -0.059695
 -0.020868
 -0.020868
 -0.020868
 -0.106161
 -0.048238
 -0.048874
 -0.031052
 -0.028506
 -0.028506
 -0.030415
 -0.029779
 -0.029779
 -0.030415
 -0.030415
 -0.030415
 -0.028506
 -0.029779
 -0.031052
 -0.030415
 -0.029142
 -0.030415
 -0.031688
 -0.030415
 -0.030415
 -0.029142
 -0.030415
 -0.031052
 -0.029142
 -0.029142
 -0.029779
 -0.030415
 -0.029142
 -0.029779
 -0.029779
 -0.031052
 -0.029142
 -0.029779
 -0.030415
 -0.031052
 -0.029779
 -0.039327
 -0.030415
 -0.031052
 -0.030415
 -0.039327
 -0.029779
 -0.031052
 -0.020868
 -0.018958
 -0.020868
 -0.021504
 -0.020868
 -0.018958
 -0.027233
  -0.02405
 -0.020868
 -0.019595
 -0.020231
 -0.020868
 -0.020868
 -0.018958
 -0.020231
  -0.01132
 -0.010683
  -0.00941
 -0.018958
 -0.018958
 -0.020231
 -0.018958
 -0.017048
 -0.010683
 -0.011956
 -0.010683
 -0.020868
 -0.010683
 -0.020868
  -0.01132
 -0.029142
 -0.010047
  -0.01132
 -0.011956
 -0.020868
 -0.010047
 -0.029142
 -0.010683
 -0.019595
 -0.010047
 -0.020231
 -0.001772
 -0.010047
 -0.000499
 -0.008137
  -0.00941
 -0.010047
 -0.006864
 -0.003682
 -0.000499
  0.006503
  0.000137
  0.007139
 -0.000499
  0.008412
  0.010322
   0.01796
   0.01796
  0.019233
  0.021142
  0.019233
  0.008412
  0.017323
  0.019233
   0.01796
  0.036419
  0.029417
  0.029417
  0.027508
  0.028144
  0.017323
  0.017323
  0.019233
  0.026871
  0.017323
   0.01796
  0.018596
   0.04724
  0.035782
  0.036419
  0.037055
   0.04724
  0.036419
  0.037692
  0.038965
  0.046603
  0.038328
   0.04342
  0.044694
  0.041511
  0.044057
  0.040238
  0.038328
  0.027508
  0.035146
  0.027508
  0.037692
  0.028781
  0.027508
  0.026871
  0.028144
  0.019869
  0.018596
  0.018596
  0.028781
   0.01796
  0.016687
  0.017323
  0.019233
  0.009049
  0.008412
  0.008412
  0.019233
  0.008412
  0.007776
  0.008412
  0.008412
  0.009049
  0.008412
  0.000774
 -0.000499
 -0.001136
  0.010322
 -0.000499
 -0.000499
  -0.01132
 -0.010683
 -0.010683
 -0.010683
 -0.004955
 -0.006228
 -0.010047
 -0.008774
  -0.00941
 -0.010683
 -0.010683
  -0.00941
 -0.010047
 -0.010683
 -0.010047
 -0.010683
 -0.010047
 -0.010683
 -0.010683
 -0.008774
 -0.010047
  -0.01132
 -0.010047
  -0.00941
  -0.00941
 -0.010683
 -0.010683
  -0.00941
 -0.010683
  -0.01132
 -0.010683
 -0.008774
 -0.010683
  -0.01132
  -0.00941
 -0.010047
 -0.010683
 -0.010683
 -0.010683
  -0.00941
 -0.010047
 -0.010683
 -0.010047
  -0.00941
 -0.010047
 -0.010683
 -0.010047
 -0.008137
 -0.010047
 -0.010047
 -0.010683
 -0.010683
 -0.010047
 -0.010047
 -0.010683
 -0.008774
 -0.010683
 -0.011956
  -0.00941
 -0.021504
 -0.010683
 -0.020231
  -0.01132
 -0.020231
 -0.010047
 -0.010047
  0.007139
 -0.000499
  0.009049
  0.009049
   0.01796
  0.008412
  0.009685
  0.008412
  0.017323
  0.017323
  0.018596
  0.007776
  0.017323
  0.019233
  0.019869
  0.027508
  0.026871
  0.027508
  0.028781
  0.027508
  0.017323
  0.017323
  0.018596
  0.017323
  0.017323
  0.018596
  0.019233
   0.01605
  0.027508
  0.020506
  0.019233
  0.018596
   0.01796
  0.019233
  0.027508
  0.017323
  0.018596
  0.009685
  0.019233
  0.018596
  0.018596
  0.009685
  0.009049
  0.007776
  0.017323
  0.009049
  0.008412
 -0.000499
 -0.001136
  0.000774
  0.010322
 -0.000499
 -0.000499
  0.000137
 -0.001136
  -0.01132
 -0.010683
 -0.008137
 -0.010047
  -0.00941
 -0.012593
 -0.010047
  -0.00941
 -0.010683
  -0.01132
  -0.01132
  -0.00941
 -0.010047
  -0.01132
 -0.010683
 -0.008774
 -0.010047
  -0.01132
 -0.010683
 -0.010047
 -0.008774
  -0.01132
  -0.01132
  -0.00941
 -0.010047
  -0.01132
 -0.010683
  -0.00941
 -0.010047
 -0.010683
 -0.010047
 -0.010047
 -0.008774
  -0.01132
 -0.010047
  -0.00941
  -0.01132
  -0.01132
 -0.010683
  -0.00941
 -0.010047
 -0.010683
 -0.010683
  -0.00941
  0.026871
  -0.01132
 -0.000499
 -0.022141
 -0.003045
 -0.027869
   -0.0406
 -0.057149
 -0.054603
 -0.145625
 -0.104251
 -0.262743
 -0.136077
 -0.197819
 -0.150717
 -0.227099
 -0.150717
 -0.286931
   -0.1208
 -0.200365
 -0.127802
 -0.183815
 -0.127166
 -0.222006
 -0.098522
 -0.118254
 -0.068606
 -0.143715
 -0.057785
 -0.058422
 -0.048874
 -0.046965
 -0.029142
  -0.00941
  -0.00941
  0.056787
  0.027508
  0.096888
  0.049149
  0.086704
  0.047876
  0.134442
  0.076519
  0.230556
  0.084794
  0.220372
   0.11471
  0.175179
  0.159266
  0.142717
  0.166268
  0.129987
  0.258563
  0.121712
  0.207641
  0.131896
  0.207005
   0.07461
  0.047876
   0.04533
 -0.018958
  0.008412
 -0.059058
 -0.020868
 -0.020868
 -0.020231
 -0.105524
 -0.049511
 -0.050784
 -0.029779
 -0.029779
 -0.028506
 -0.029142
 -0.030415
 -0.029779
 -0.029142
 -0.030415
 -0.031052
 -0.030415
 -0.029142
 -0.029142
 -0.030415
 -0.030415
 -0.029142
 -0.029142
 -0.029779
 -0.031052
 -0.029779
 -0.028506
 -0.029142
 -0.029142
 -0.031052
 -0.029142
 -0.029142
 -0.029142
 -0.031688
 -0.029142
 -0.027869
 -0.029142
 -0.030415
 -0.030415
 -0.030415
 -0.029142
 -0.039327
 -0.031052
 -0.031052
 -0.031052
 -0.039327
 -0.029142
 -0.030415
 -0.020868
 -0.019595
 -0.020231
 -0.020868
 -0.020231
 -0.020868
 -0.019595
 -0.030415
 -0.022141
 -0.020231
 -0.020231
 -0.019595
 -0.020868
 -0.020868
 -0.020231
 -0.020868
  -0.01132
 -0.010683
 -0.010047
 -0.018958
 -0.020231
 -0.018322
 -0.016412
 -0.013229
  -0.01132
 -0.010683
 -0.018958
 -0.011956
 -0.020868
 -0.010683
 -0.028506
  -0.01132
 -0.011956
 -0.010047
 -0.018958
 -0.010047
 -0.031052
 -0.010683
 -0.018958
  -0.00941
 -0.021504
 -0.001136
 -0.010047
 -0.002409
 -0.010683
 -0.001136
 -0.021504
 -0.003045
 -0.010683
 -0.000499
  0.000137
  0.008412
 -0.001772
  0.007776
 -0.000499
  0.009049
  0.008412
  0.019233
  0.020506
  0.019233
   0.01796
   0.01796
  0.012231
  0.019233
  0.016687
  0.031327
  0.031327
  0.026871
  0.028144
  0.028144
  0.019869
  0.017323
  0.016687
  0.025598
  0.019233
  0.018596
   0.01796
  0.044694
  0.037692
  0.037055
  0.036419
   0.04533
  0.037692
  0.038328
  0.038328
  0.045967
  0.037055
  0.049149
  0.038328
   0.04724
  0.037692
  0.047876
  0.037692
  0.037055
  0.026871
  0.038965
  0.027508
  0.038328
  0.026871
  0.028781
  0.028781
  0.028781
  0.019233
  0.017323
  0.021779
  0.024325
   0.01796
  0.017323
  0.017323
  0.010958
  0.009049
  0.007776
  0.016687
  0.009049
  0.009049
  0.007139
  0.007776
  0.009049
  0.009049
 -0.000499
 -0.000499
  0.000137
  0.008412
 -0.000499
 -0.001772
 -0.010047
  -0.01132
  -0.01132
 -0.010683
 -0.010047
  0.000137
  -0.01132
 -0.010683
 -0.008774
 -0.010047
  -0.01132
 -0.010683
 -0.008137
  -0.00941
 -0.010047
 -0.010047
  -0.01132
 -0.008774
  -0.01132
 -0.010047
 -0.010047
 -0.010683
  -0.01132
 -0.010047
  -0.00941
 -0.010047
 -0.010683
 -0.010683
  -0.00941
 -0.010047
  -0.01132
 -0.010683
 -0.008774
 -0.010047
 -0.010683
  -0.00941
  -0.00941
 -0.010047
 -0.011956
 -0.010047
 -0.008774
 -0.010683
  -0.01132
 -0.010047
  -0.00941
 -0.010683
  -0.01132
 -0.010683
 -0.008774
 -0.010683
  -0.01132
 -0.010047
 -0.010683
  -0.01132
 -0.010683
 -0.010047
  -0.01132
  -0.00941
 -0.019595
 -0.010047
 -0.020231
 -0.010047
 -0.017685
  -0.01132
  0.000137
  0.003957
  0.006503
  0.009049
  0.016687
  0.011595
  0.009049
  0.007776
   0.01796
  0.017323
  0.015414
  0.009049
  0.019233
   0.01796
  0.017323
  0.026235
  0.027508
  0.025598
  0.026871
  0.029417
  0.017323
  0.016687
  0.017323
  0.019233
  0.018596
  0.016687
  0.017323
   0.01796
  0.017323
  0.026871
  0.018596
  0.019233
   0.01796
  0.018596
  0.019233
  0.027508
  0.017323
  0.018596
  0.008412
   0.01796
  0.018596
  0.014777
  0.009049
  0.007776
  0.015414
  0.010958
  0.008412
  0.000137
  0.000137
 -0.000499
  0.009685
  0.000774
   0.00141
  0.000137
 -0.000499
 -0.010047
 -0.010683
 -0.010683
 -0.010047
 -0.008774
 -0.010047
 -0.010683
 -0.010683
 -0.008774
 -0.010683
  -0.01132
 -0.010047
 -0.007501
 -0.010683
 -0.010683
 -0.010047
 -0.010683
 -0.010047
 -0.010683
 -0.010683
 -0.008774
  -0.00941
  -0.01132
 -0.010683
  -0.00941
 -0.010683
 -0.010683
 -0.010683
 -0.010683
 -0.008774
 -0.010047
  -0.01132
 -0.010047
  -0.00941
 -0.008774
 -0.010683
 -0.010047
 -0.010683
  -0.01132
  -0.01132
 -0.010683
 -0.008774
 -0.010047
  -0.01132
  0.025598
 -0.010683
 -0.001772
 -0.021504
  0.000137
 -0.020868
 -0.041236
 -0.039327
 -0.067333
 -0.049511
 -0.174268
 -0.088338
 -0.290114
 -0.116981
  -0.20482
 -0.144352
 -0.232827
 -0.147534
 -0.290114
 -0.115708
  -0.20482
 -0.126529
 -0.183179
 -0.127166
    -0.194
 -0.104251
 -0.090248
 -0.118891
  -0.08261
 -0.055876
 -0.050147
 -0.050147
 -0.032961
 -0.010683
  -0.00941
  0.053605
  0.029417
  0.094978
  0.049149
   0.08543
  0.049149
  0.135079
  0.076519
   0.22801
   0.08543
  0.219099
  0.095615
  0.210824
  0.115347
  0.202549
  0.103253
  0.192365
  0.115983
  0.289752
  0.093705
  0.222918
  0.124258
  0.210824
  0.066335
  0.047876
  0.045967
 -0.020868
  0.009049
 -0.057149
 -0.020231
 -0.022141
 -0.046965
 -0.080063
 -0.050147
 -0.036144
 -0.029142
 -0.029779
 -0.031052
 -0.029779
 -0.029779
 -0.030415
 -0.031052
 -0.031052
 -0.028506
 -0.029142
 -0.030415
 -0.030415
 -0.029142
 -0.029779
 -0.029779
 -0.028506
 -0.029779
 -0.029779
 -0.030415
 -0.029779
 -0.028506
 -0.029142
 -0.029779
 -0.029779
 -0.029142
 -0.029142
 -0.031688
 -0.029779
 -0.028506
 -0.029779
 -0.031052
 -0.029779
 -0.029142
 -0.031052
 -0.041236
 -0.030415
 -0.027869
 -0.030415
  -0.03678
 -0.029142
 -0.023414
 -0.020868
 -0.019595
 -0.020231
 -0.020231
 -0.019595
 -0.020868
 -0.029779
 -0.020231
 -0.020231
 -0.021504
 -0.020868
 -0.018958
 -0.019595
 -0.020868
 -0.020231
  -0.00941
 -0.010047
  -0.01132
 -0.018958
 -0.018322
 -0.018322
 -0.019595
 -0.019595
  -0.00941
 -0.010683
 -0.010047
 -0.021504
 -0.010683
 -0.020231
 -0.010047
 -0.029142
 -0.010683
  -0.01132
 -0.010047
 -0.021504
 -0.010047
 -0.031052
 -0.010683
 -0.018322
 -0.015139
  -0.01132
 -0.006864
 -0.003682
 -0.008774
 -0.004955
 -0.019595
 -0.002409
 -0.010047
 -0.003045
 -0.000499
  0.009049
 -0.001136
  0.009049
 -0.000499
  0.009685
  0.009049
  0.017323
  0.018596
  0.019233
  0.018596
  0.018596
  0.008412
   0.01796
  0.019233
   0.01796
  0.037055
  0.027508
  0.029417
  0.028781
  0.028781
  0.017323
  0.018596
  0.019233
  0.027508
   0.01796
  0.017323
  0.019233
  0.046603
  0.036419
  0.037055
  0.039601
  0.042784
  0.037055
  0.038328
   0.04533
  0.039601
  0.044694
  0.039601
   0.04724
  0.038328
  0.044694
  0.039601
  0.037692
  0.028781
  0.037055
  0.027508
  0.039601
  0.028144
  0.026871
  0.027508
  0.028781
   0.01796
  0.017323
  0.018596
  0.027508
   0.01796
   0.01796
   0.01796
  0.018596
  0.009685
  0.008412
  0.007776
  0.018596
  0.009049
  0.008412
  0.007139
  0.008412
  0.009685
  0.009049
 -0.001136
  0.000137
   0.00141
  0.005866
 -0.001136
 -0.006864
 -0.010683
  -0.01132
  -0.01132
 -0.010683
 -0.000499
  -0.00941
 -0.010683
 -0.010683
 -0.010047
 -0.010683
 -0.010683
 -0.010683
  -0.00941
 -0.010047
 -0.010683
  -0.00941
 -0.010683
 -0.010683
 -0.010047
 -0.010047
 -0.010047
 -0.010047
 -0.010683
 -0.010683
 -0.010047
  -0.00941
  -0.01132
  -0.00941
 -0.010047
 -0.010047
  -0.01132
 -0.010047
 -0.010047
 -0.010047
 -0.010683
 -0.010683
 -0.008137
 -0.010683
 -0.010683
 -0.010683
  -0.00941
 -0.010047
 -0.010683
 -0.010683
 -0.008774
  -0.00941
 -0.010683
 -0.010047
 -0.010047
 -0.010683
  -0.01132
 -0.010683
 -0.008774
 -0.010683
 -0.010047
  -0.01132
  -0.01132
 -0.010683
 -0.010683
 -0.020868
 -0.010047
 -0.020231
 -0.010683
 -0.020868
 -0.010683
 -0.010047
  0.009049
 -0.000499
  0.009685
  0.009049
  0.017323
  0.008412
  0.007139
  0.009049
  0.017323
   0.01605
  0.017323
  0.009049
  0.019233
   0.01796
  0.019869
  0.026871
  0.028781
  0.028781
  0.027508
  0.018596
  0.018596
  0.019233
  0.018596
  0.016687
  0.017323
  0.018596
  0.018596
  0.018596
  0.026235
  0.019233
  0.019233
   0.01796
   0.01796
  0.018596
  0.028144
  0.018596
  0.018596
  0.007139
  0.017323
  0.019233
  0.019233
  0.009049
  0.008412
  0.008412
  0.018596
  0.010322
  0.007776
 -0.001772
 -0.001136
 -0.000499
  0.009049
 -0.000499
 -0.000499
  0.000137
   0.00141
 -0.010047
  -0.01132
 -0.010683
 -0.008137
 -0.010047
 -0.011956
 -0.010683
 -0.010683
  -0.00941
 -0.010683
  -0.01132
 -0.010683
  -0.00941
 -0.010047
 -0.010047
  -0.01132
  -0.00941
 -0.010047
 -0.008137
 -0.010047
 -0.010683
 -0.010683
 -0.010047
 -0.008774
 -0.010683
 -0.011956
 -0.010683
  -0.01132
  -0.00941
 -0.008774
 -0.010683
 -0.011956
 -0.010683
 -0.010683
 -0.010047
 -0.010683
 -0.010683
 -0.010047
  -0.00941
 -0.010047
 -0.010683
 -0.010683
 -0.010047
   0.00141
  0.009049
 -0.003045
 -0.016412
 -0.006228
 -0.017048
 -0.038053
 -0.041236
  -0.06606
 -0.049511
 -0.167903
 -0.092794
 -0.284385
 -0.118891
 -0.202274
 -0.148171
 -0.231554
 -0.146898
 -0.288204
 -0.116345
 -0.204184
 -0.125893
 -0.181906
 -0.125893
 -0.223279
 -0.097886
 -0.115072
 -0.068606
 -0.144352
 -0.059058
 -0.057149
 -0.049511
 -0.048874
 -0.030415
 -0.010683
 -0.010047
  0.056787
  0.027508
  0.096251
   0.04724
  0.087977
  0.061243
  0.114074
  0.154811
   0.14208
  0.179635
  0.125531
  0.190456
  0.128714
  0.193638
  0.112801
  0.187273
  0.119166
  0.280841
  0.100707
  0.218462
  0.126167
  0.209551
  0.069518
   0.04724
  0.047876
 -0.020868
  0.009049
 -0.059695
 -0.022777
 -0.021504
 -0.020868
 -0.107434
  -0.05142
 -0.050147
 -0.029142
 -0.029142
 -0.031052
 -0.029779
 -0.029779
 -0.029142
 -0.030415
 -0.029142
 -0.030415
 -0.029142
 -0.030415
 -0.029779
 -0.029779
 -0.030415
 -0.031688
 -0.027869
 -0.030415
 -0.030415
 -0.030415
 -0.028506
 -0.030415
 -0.031052
 -0.028506
 -0.029779
 -0.031052
 -0.030415
 -0.029142
 -0.031052
 -0.030415
 -0.029142
 -0.029142
 -0.031052
 -0.029142
 -0.029779
 -0.041236
 -0.029142
 -0.030415
 -0.031688
 -0.039327
 -0.029142
 -0.030415
 -0.018958
 -0.017685
 -0.020231
 -0.021504
 -0.019595
 -0.020231
 -0.021504
 -0.030415
 -0.018958
 -0.019595
 -0.020868
 -0.019595
 -0.020231
 -0.020868
 -0.020868
 -0.015775
 -0.010683
 -0.010047
 -0.017685
 -0.018322
 -0.018958
 -0.019595
 -0.018958
 -0.008774
 -0.010683
 -0.010047
 -0.020868
 -0.010047
 -0.020231
 -0.010683
 -0.029779
 -0.010047
 -0.010047
 -0.010683
 -0.022141
  -0.01132
 -0.030415
 -0.011956
 -0.020868
 -0.010047
 -0.020868
 -0.001772
 -0.010683
 -0.000499
 -0.010683
 -0.003682
 -0.020868
  0.000137
 -0.010047
 -0.000499
 -0.000499
  0.009685
 -0.000499
  0.007776
 -0.000499
  0.009685
  0.012231
  0.018596
  0.018596
  0.019233
  0.018596
  0.009685
  0.016687
  0.019233
  0.018596
  0.035782
  0.028781
  0.028781
  0.028144
  0.027508
  0.018596
  0.019233
  0.017323
  0.026871
  0.019869
  0.017323
  0.016687
  0.045967
  0.038328
  0.035782
  0.036419
  0.046603
  0.038965
  0.038328
  0.037055
  0.046603
  0.038965
   0.04724
  0.037692
  0.046603
  0.037055
   0.04724
  0.037692
  0.036419
  0.028781
  0.037692
  0.026871
  0.035146
  0.028781
  0.028781
  0.027508
  0.021142
  0.019233
  0.019233
  0.026871
  0.019233
  0.019233
  0.018596
  0.016687
  0.007139
  0.009049
  0.009685
   0.01796
  0.009049
  0.007139
  0.008412
  0.009049
  0.010322
  0.009049
 -0.001772
 -0.001772
 -0.000499
  0.009685
 -0.000499
 -0.000499
 -0.010683
 -0.010683
 -0.008774
 -0.010047
 -0.010683
 -0.000499
 -0.010683
  -0.00941
 -0.010047
 -0.010683
 -0.010683
  -0.00941
 -0.010047
  -0.01132
  -0.01132
 -0.010047
  -0.01132
  -0.01132
  -0.01132
  -0.00941
 -0.010683
 -0.011956
  -0.00941
  -0.00941
 -0.010047
 -0.010047
 -0.010047
 -0.010047
 -0.010683
 -0.010683
 -0.008774
 -0.010683
 -0.010683
 -0.010683
  -0.00941
 -0.010683
  -0.01132
  -0.01132
 -0.010683
 -0.010047
 -0.010047
 -0.011956
 -0.010683
 -0.010047
 -0.010047
 -0.011956
  -0.01132
 -0.008774
 -0.010683
  -0.01132
 -0.010047
 -0.010047
  -0.01132
 -0.010047
 -0.008774
 -0.010683
 -0.010683
  -0.00941
 -0.010047
 -0.017048
 -0.013229
 -0.018322
  -0.01132
 -0.020231
 -0.011956
 -0.010683
  0.007776
 -0.000499
  0.008412
  0.007776
  0.018596
  0.009049
  0.007776
  0.007776
  0.017323
   0.01796
  0.017323
  0.007139
  0.018596
  0.018596
   0.01796
  0.026235
  0.027508
  0.028781
  0.027508
  0.027508
  0.019233
  0.019233
   0.01796
  0.016687
  0.017323
  0.019233
   0.01796
  0.016687
  0.017323
  0.028781
  0.019233
   0.01796
  0.018596
  0.019869
  0.024325
  0.020506
  0.018596
  0.010322
   0.01796
   0.01796
  0.018596
  0.009685
  0.009685
  0.007776
  0.017323
  0.010322
  0.009685
 -0.002409
 -0.001136
 -0.000499
  0.009685
 -0.000499
 -0.001136
  0.000774
  0.000137
 -0.010683
 -0.010683
 -0.008774
 -0.010683
 -0.010683
  -0.01132
 -0.008774
 -0.010047
 -0.010683
 -0.010683
  -0.00941
 -0.010683
  -0.01132
 -0.010047
  -0.00941
 -0.010683
 -0.010047
  -0.00941
 -0.010047
  -0.01132
  -0.01132
 -0.010047
 -0.010683
 -0.010683
  -0.00941
 -0.010047
 -0.010047
  -0.01132
 -0.010683
 -0.010047
  -0.01132
 -0.010047
  -0.00941
 -0.010683
  -0.01132
 -0.010683
 -0.008774
 -0.010047
 -0.010047
 -0.010047
 -0.008774
 -0.010047
  -0.01132
 -0.010047
  0.028781
 -0.010683
 -0.003045
 -0.020868
 -0.000499
 -0.020868
 -0.042509
   -0.0406
 -0.067333
 -0.049511
 -0.176177
 -0.089611
 -0.290114
 -0.115708
  -0.20482
 -0.146261
 -0.212459
 -0.205457
 -0.195909
 -0.172995
 -0.147534
 -0.171722
 -0.136713
 -0.211186
 -0.109343
 -0.116981
 -0.071152
 -0.140532
 -0.061605
 -0.059058
 -0.048238
 -0.048874
 -0.030415
  -0.01132
 -0.010683
  0.056787
  0.027508
  0.096251
  0.048513
  0.087977
   0.04724
  0.134442
  0.076519
  0.231829
  0.086067
  0.220372
  0.095615
  0.212097
  0.114074
  0.201913
  0.104526
  0.191729
   0.11471
  0.289752
  0.094342
  0.219735
  0.124894
  0.201913
  0.060606
  0.047876
  0.008412
 -0.000499
 -0.042509
 -0.029142
 -0.020868
 -0.020231
 -0.099159
 -0.053966
 -0.049511
 -0.029779
 -0.029142
 -0.031052
 -0.030415
 -0.028506
 -0.030415
 -0.030415
 -0.030415
 -0.028506
 -0.030415
 -0.031052
 -0.029142
 -0.027869
 -0.029779
 -0.029779
 -0.031052
 -0.028506
 -0.029142
 -0.031052
 -0.029142
 -0.029142
 -0.030415
 -0.030415
 -0.029142
 -0.029142
 -0.029142
 -0.031052
 -0.029142
 -0.030415
 -0.030415
 -0.029779
 -0.029142
 -0.029779
 -0.031052
  -0.03678
 -0.031688
 -0.030415
 -0.030415
  -0.03869
 -0.029779
 -0.029779
 -0.022141
 -0.020231
 -0.020231
 -0.018958
 -0.021504
 -0.020868
 -0.018958
 -0.029142
 -0.020868
 -0.020231
 -0.019595
 -0.020868
 -0.020868
 -0.019595
 -0.020231
 -0.020868
  -0.01132
 -0.010047
 -0.010683
 -0.018958
 -0.017048
 -0.018958
 -0.018958
 -0.019595
 -0.010047
  -0.00941
 -0.010683
 -0.021504
 -0.010683
 -0.019595
 -0.011956
  -0.02596
 -0.010047
 -0.010047
 -0.017048
 -0.013229
  -0.02596
 -0.013229
 -0.018322
 -0.010683
 -0.019595
 -0.003045
  -0.00941
 -0.000499
  -0.00941
 -0.001772
 -0.019595
 -0.000499
  -0.00941
 -0.001772
 -0.000499
  0.008412
 -0.001772
  0.007139
  0.000137
  0.009685
  0.010322
  0.019233
   0.01796
  0.019233
  0.020506
  0.018596
  0.007139
   0.01796
  0.019233
   0.01796
  0.037055
  0.027508
  0.028781
  0.028781
  0.027508
   0.01796
  0.018596
  0.019233
  0.024962
   0.01796
  0.017323
  0.039601
  0.039601
  0.035782
  0.035782
  0.046603
  0.038965
  0.037055
  0.035782
   0.04724
  0.038965
  0.047876
  0.039601
   0.04724
  0.037692
  0.047876
  0.038328
  0.035782
  0.028781
  0.038965
  0.028144
  0.037055
  0.028781
  0.028781
  0.028144
  0.026871
  0.018596
  0.019869
  0.019233
  0.027508
   0.01796
   0.01796
  0.016687
   0.01796
  0.009049
  0.008412
  0.009049
  0.017323
  0.009049
  0.008412
  0.008412
  0.009685
  0.007776
  0.002047
  0.000137
 -0.000499
  0.007139
  0.000774
 -0.001136
  -0.01132
 -0.010683
  -0.00941
  -0.01132
 -0.011956
 -0.001136
 -0.010047
 -0.010683
 -0.010683
 -0.010683
 -0.008774
  -0.01132
  -0.00941
 -0.008774
 -0.010683
  -0.01132
  -0.00941
  -0.00941
  -0.01132
 -0.010047
 -0.008774
 -0.010683
 -0.010683
 -0.010047
 -0.010047
 -0.010683
  -0.00941
 -0.008774
 -0.010047
  -0.01132
 -0.010683
  -0.00941
 -0.010047
 -0.011956
 -0.011956
 -0.008774
 -0.008774
 -0.011956
 -0.010683
 -0.010047
  -0.01132
  -0.01132
 -0.010047
 -0.008774
 -0.010047
  -0.01132
 -0.010683
 -0.008774
 -0.010683
  -0.01132
 -0.008774
  -0.00941
 -0.010683
 -0.010047
 -0.010047
 -0.010683
 -0.010047
  -0.01132
 -0.010047
 -0.010047
 -0.021504
 -0.010683
 -0.020231
 -0.010683
 -0.021504
 -0.010683
 -0.010047
  0.009049
 -0.001136
  0.008412
  0.010322
  0.018596
  0.007139
  0.009049
  0.012868
  0.017323
   0.01796
  0.012231
  0.016687
   0.01796
  0.018596
  0.028144
  0.028144
  0.026235
  0.026871
  0.028144
   0.01796
  0.016687
  0.017323
  0.019233
   0.01796
   0.01605
  0.016687
  0.017323
  0.016687
  0.027508
  0.019233
  0.019233
  0.017323
  0.017323
  0.019233
  0.028781
  0.016687
   0.01796
  0.009049
   0.01796
  0.017323
  0.018596
  0.009685
  0.007139
  0.007139
   0.01796
  0.009685
  0.009685
 -0.000499
 -0.002409
  0.002683
  0.004593
  0.000137
 -0.001136
 -0.000499
 -0.008137
 -0.010047
 -0.010683
  -0.00941
 -0.008774
 -0.010047
 -0.011956
 -0.010683
  -0.00941
 -0.010047
 -0.011956
 -0.010683
 -0.010683
 -0.008774
 -0.010683
 -0.010047
 -0.010047
 -0.010047
 -0.010683
 -0.010047
 -0.010047
 -0.010683
 -0.010683
 -0.010047
 -0.010683
  -0.01132
 -0.010047
 -0.010047
  -0.01132
 -0.010047
  -0.00941
 -0.010047
  -0.01132
 -0.010047
 -0.010047
 -0.010047
 -0.011956
 -0.010047
  -0.00941
 -0.010047
  -0.01132
 -0.010047
 -0.008774
  -0.00941
  0.021142
 -0.008774
 -0.001772
 -0.018958
 -0.001772
 -0.020868
 -0.039327
   -0.0406
 -0.069879
 -0.049511
 -0.173631
 -0.089611
 -0.290114
 -0.116345
 -0.202274
 -0.146261
   -0.2341
 -0.146261
 -0.288841
 -0.115708
 -0.204184
 -0.126529
 -0.181906
 -0.125893
 -0.224552
 -0.097249
 -0.115708
 -0.068606
 -0.145625
 -0.057149
 -0.057785
 -0.050784
 -0.048874
 -0.025323
  -0.00941
  0.022415
  0.038328
  0.076519
   0.05997
  0.080338
  0.052332
  0.124258
  0.081611
  0.222281
  0.091796
  0.214007
  0.098161
  0.208914
   0.11662
   0.20064
  0.105162
  0.189819
  0.115983
  0.286569
  0.093705
  0.219735
  0.126167
  0.210824
  0.065699
  0.049149
   0.04724
 -0.020868
  0.008412
 -0.058422
 -0.020868
 -0.021504
 -0.020868
 -0.106797
 -0.048874
 -0.049511
 -0.029779
 -0.029142
 -0.029779
 -0.031052
 -0.029142
 -0.028506
 -0.030415
 -0.029142
 -0.028506
 -0.029779
 -0.031688
 -0.029142
 -0.028506
 -0.029142
 -0.031052
 -0.031052
 -0.028506
 -0.030415
 -0.029779
 -0.030415
 -0.029142
 -0.029142
 -0.030415
 -0.030415
 -0.030415
 -0.029142
 -0.030415
 -0.029779
 -0.030415
 -0.030415
 -0.029142
 -0.028506
 -0.030415
 -0.030415
 -0.041236
 -0.029142
 -0.029142
 -0.029142
 -0.039327
 -0.030415
 -0.031052
 -0.020231
 -0.019595
 -0.020868
 -0.019595
 -0.020231
 -0.020231
 -0.022141
  -0.02405
 -0.019595
 -0.020868
 -0.020868
 -0.018958
 -0.018958
 -0.020231
 -0.020868
 -0.010683
  -0.01132
 -0.010683
 -0.018958
 -0.018958
 -0.019595
 -0.018958
 -0.017685
 -0.010683
  -0.01132
  -0.01132
 -0.020231
 -0.010683
 -0.020868
 -0.010683
 -0.028506
 -0.010683
 -0.011956
 -0.010683
 -0.020231
 -0.010683
 -0.031688
 -0.010683
 -0.018958
 -0.010047
 -0.021504
 -0.000499
 -0.008774
 -0.001136
 -0.011956
 -0.001772
 -0.020868
 -0.001772
 -0.007501
 -0.003045
  0.003957
   0.00141
  0.006503
   0.00141
  0.007139
  0.008412
  0.018596
  0.019233
  0.021142
  0.017323
  0.019869
  0.009685
  0.018596
  0.017323
  0.017323
  0.036419
  0.029417
  0.028144
  0.028781
  0.027508
  0.019233
  0.019233
  0.019233
  0.026871
  0.018596
  0.018596
  0.018596
  0.047876
  0.035146
  0.035146
  0.036419
  0.047876
  0.038328
  0.037692
  0.037055
  0.046603
  0.037055
  0.048513
  0.037055
  0.044694
  0.040874
  0.042147
  0.039601
   0.03069
  0.035146
  0.028144
  0.035782
  0.030054
  0.028144
  0.027508
  0.027508
  0.019233
  0.019233
   0.01796
  0.028144
  0.019233
  0.018596
  0.019233
  0.016687
  0.009049
  0.009685
  0.008412
  0.017323
  0.009049
  0.009685
  0.009049
  0.008412
  0.008412
  0.009049
 -0.000499
 -0.001136
 -0.001136
  0.010322
 -0.002409
 -0.000499
 -0.010683
 -0.010683
 -0.011956
 -0.010047
 -0.010683
 -0.000499
 -0.010683
  -0.01132
  -0.00941
 -0.010683
  -0.01132
 -0.010047
 -0.008774
 -0.010047
 -0.010047
 -0.010683
 -0.010683
 -0.010047
 -0.010047
  -0.01132
 -0.010683
 -0.010047
 -0.010047
 -0.010047
 -0.010683
 -0.010683
 -0.010683
  -0.01132
  -0.00941
  -0.00941
 -0.010683
  -0.01132
 -0.010683
 -0.008774
 -0.010683
  -0.01132
 -0.010047
 -0.010047
 -0.010047
 -0.011956
 -0.010683
  -0.00941
 -0.008774
  -0.00941
  -0.01132
 -0.008774
 -0.010683
 -0.010683
  -0.01132
 -0.010683
 -0.010047
 -0.010683
 -0.010683
 -0.010683
  -0.00941
  -0.01132
  -0.01132
 -0.010683
  -0.00941
 -0.020231
 -0.011956
 -0.020231
 -0.010047
 -0.021504
 -0.011956
 -0.010683
  0.009049
 -0.000499
  0.008412
  0.008412
  0.018596
  0.009049
  0.009049
  0.007776
  0.016687
  0.017323
   0.01796
  0.008412
   0.01796
  0.017323
  0.018596
  0.027508
  0.028144
  0.026871
  0.028144
  0.026871
   0.01796
  0.017323
  0.018596
  0.017323
   0.01796
   0.01605
  0.018596
  0.017323
  0.027508
  0.019233
  0.017323
  0.018596
  0.019233
  0.019233
  0.026235
  0.019233
  0.019233
  0.008412
   0.01796
   0.01796
  0.019869
  0.009049
  0.007139
  0.009049
  0.019233
  0.009685
  0.006503
 -0.000499
  0.000137
 -0.000499
  0.009685
  0.000774
  0.000137
 -0.000499
 -0.000499
 -0.010683
 -0.010683
 -0.010047
 -0.010683
 -0.010047
 -0.010683
  -0.01132
 -0.010047
 -0.010047
 -0.010683
  -0.01132
 -0.010047
 -0.008774
 -0.010047
  -0.01132
 -0.010683
 -0.008774
 -0.010047
 -0.010683
 -0.010683
  -0.00941
 -0.010047
 -0.008774
  -0.00941
 -0.008774
 -0.011956
 -0.010047
  -0.00941
 -0.010047
  -0.01132
 -0.010683
 -0.008137
 -0.010683
  -0.01132
 -0.010047
  -0.00941
 -0.010683
  -0.01132
 -0.010683
 -0.010047
 -0.010683
 -0.010047
 -0.010047
 -0.010047
  0.025598
  -0.01132
 -0.000499
 -0.020231
 -0.001772
 -0.020868
 -0.039327
 -0.039963
 -0.064787
 -0.101705
 -0.127802
 -0.220097
 -0.164084
 -0.185725
 -0.154536
  -0.22137
 -0.156445
 -0.278656
 -0.127802
 -0.199728
 -0.128439
 -0.181269
 -0.127802
 -0.223279
 -0.098522
 -0.115708
 -0.068606
 -0.144352
 -0.059058
 -0.058422
 -0.048874
 -0.048238
 -0.030415
 -0.010047
  -0.00941
  0.057424
  0.028144
  0.095615
  0.048513
  0.087977
  0.046603
  0.135079
  0.077156
  0.230556
  0.084794
  0.221008
  0.095615
  0.209551
  0.115347
  0.196821
   0.12935
  0.156084
   0.21528
  0.159266
  0.189182
   0.14208
  0.198094
  0.084794
  0.049786
   0.04724
 -0.016412
  0.007139
 -0.059695
 -0.021504
 -0.020231
 -0.021504
  -0.10807
  -0.05142
 -0.048874
 -0.030415
 -0.031052
 -0.029142
 -0.029142
 -0.029779
 -0.030415
 -0.030415
 -0.029779
 -0.029142
 -0.030415
 -0.029779
 -0.029142
 -0.031052
 -0.029779
 -0.029142
 -0.029142
 -0.030415
 -0.029142
 -0.029142
 -0.030415
 -0.030415
 -0.029142
 -0.031052
 -0.029779
 -0.030415
 -0.031052
 -0.029779
 -0.029142
 -0.029779
 -0.029779
 -0.029142
 -0.029142
 -0.032325
 -0.029142
  -0.03869
 -0.029142
 -0.031052
 -0.031688
  -0.03869
 -0.029142
 -0.029779
 -0.020868
 -0.022141
 -0.019595
 -0.020231
 -0.019595
 -0.020868
 -0.021504
 -0.029142
 -0.019595
 -0.019595
 -0.021504
 -0.020231
 -0.018958
 -0.018958
 -0.020231
 -0.020868
 -0.011956
  -0.01132
 -0.010683
 -0.018958
 -0.018958
 -0.018958
 -0.018958
 -0.016412
 -0.010683
 -0.010683
 -0.016412
 -0.012593
 -0.017048
 -0.011956
 -0.027869
 -0.011956
 -0.010047
 -0.010047
 -0.021504
 -0.010683
 -0.029142
 -0.010683
 -0.020231
 -0.011956
 -0.020868
 -0.000499
 -0.010047
 -0.000499
 -0.010683
 -0.001772
 -0.020231
 -0.001136
 -0.010683
 -0.001136
 -0.000499
  0.007139
 -0.001772
  0.008412
  0.000774
  0.009685
  0.008412
  0.018596
  0.019869
  0.019233
  0.018596
  0.019869
  0.008412
  0.019233
  0.018596
  0.023689
  0.033236
  0.028144
  0.027508
  0.028781
  0.021779
  0.017323
   0.01796
  0.026871
  0.019233
  0.019233
  0.017323
  0.046603
  0.037692
  0.035782
  0.035782
  0.046603
  0.038328
  0.038328
  0.037692
  0.046603
  0.037692
  0.049786
  0.037692
  0.045967
  0.037055
  0.048513
  0.038965
  0.037055
  0.028144
  0.038965
  0.027508
  0.037055
  0.028781
  0.029417
  0.027508
  0.027508
  0.018596
  0.019233
  0.018596
  0.026871
  0.017323
  0.019233
   0.01796
  0.012231
  0.008412
  0.009049
  0.017323
  0.010322
  0.008412
  0.008412
  0.009049
  0.009049
  0.008412
 -0.000499
 -0.000499
 -0.000499
  0.008412
 -0.000499
 -0.001136
 -0.008774
 -0.010683
 -0.010683
 -0.010047
 -0.010047
 -0.000499
 -0.010047
 -0.010047
 -0.008774
 -0.010683
 -0.010683
 -0.010047
  -0.00941
 -0.010683
 -0.010683
  -0.00941
 -0.008774
 -0.010683
 -0.010683
  -0.01132
 -0.010047
 -0.010683
 -0.010683
 -0.010047
 -0.010047
 -0.010683
  -0.01132
 -0.010047
 -0.010047
  -0.00941
 -0.011956
 -0.010683
  -0.00941
 -0.010683
 -0.010683
 -0.010047
  -0.00941
 -0.010683
 -0.011956
 -0.010047
 -0.008774
 -0.010683
  -0.01132
 -0.010683
 -0.010047
 -0.010047
 -0.010683
 -0.010683
 -0.010683
 -0.010047
 -0.010683
  -0.01132
 -0.010683
 -0.010047
 -0.010683
 -0.010683
 -0.010047
 -0.008137
 -0.020868
 -0.010683
 -0.020231
  -0.00941
 -0.020231
 -0.010683
  -0.00941
  0.005866
  0.003957
  0.010322
  0.014141
  0.011595
  0.008412
  0.009685
  0.016687
  0.016687
  0.017323
  0.009049
  0.016687
  0.016687
  0.017323
  0.030054
  0.027508
  0.027508
  0.028781
  0.027508
  0.016687
  0.017323
  0.018596
  0.017323
  0.016687
  0.016687
   0.01796
  0.017323
  0.016687
  0.027508
  0.019233
  0.017323
  0.017323
  0.017323
  0.020506
  0.027508
  0.016687
  0.018596
  0.008412
  0.019233
  0.016687
  0.019233
  0.009049
  0.007776
  0.011595
  0.013504
  0.009685
   0.00141
 -0.001772
 -0.000499
  0.009685
  0.000137
  0.000137
 -0.000499
  0.000774
 -0.008774
 -0.010047
 -0.010047
  -0.01132
 -0.010683
 -0.010047
  -0.00941
  -0.00941
  -0.01132
 -0.010683
 -0.010683
 -0.010683
 -0.010683
 -0.010047
 -0.010683
 -0.010683
  -0.00941
 -0.008774
 -0.010683
 -0.010683
  -0.01132
 -0.010047
 -0.010047
 -0.010047
 -0.010683
  -0.01132
 -0.010047
 -0.010683
 -0.008774
 -0.010683
  -0.01132
  -0.01132
 -0.010047
 -0.010683
  -0.01132
 -0.010683
  -0.01132
  -0.00941
 -0.010047
 -0.010047
 -0.010683
  -0.01132
 -0.010683
 -0.008774
  0.027508
  -0.00941
 -0.002409
 -0.021504
 -0.001136
 -0.020868
 -0.041236
   -0.0406
 -0.068606
 -0.048874
 -0.173631
 -0.087065
  -0.29075
 -0.116981
  -0.20482
 -0.145625
 -0.230918
 -0.146261
  -0.29075
 -0.116981
 -0.202911
 -0.125256
 -0.183179
 -0.125893
 -0.222643
 -0.098522
 -0.116345
  -0.07879
 -0.115072
 -0.057785
 -0.052693
 -0.049511
 -0.034234
 -0.013229
  -0.00941
  0.050422
  0.028781
  0.091796
  0.052332
  0.086067
  0.048513
  0.131896
  0.078429
   0.22801
   0.08734
  0.218462
  0.096251
  0.210824
  0.115347
  0.201276
  0.105162
  0.192365
  0.115347
  0.288479
  0.093069
  0.220372
  0.125531
  0.212734
  0.065699
   0.04724
  0.046603
 -0.020231
  0.008412
 -0.059695
 -0.020231
 -0.021504
 -0.020868
  -0.10807
 -0.049511
 -0.044419
 -0.029142
 -0.031052
 -0.029142
 -0.029779
 -0.028506
 -0.029142
 -0.031052
 -0.030415
 -0.028506
 -0.028506
 -0.029779
 -0.029779
 -0.029779
 -0.029779
 -0.029779
 -0.031052
 -0.029779
 -0.029142
 -0.029142
 -0.029142
 -0.031688
 -0.029779
 -0.030415
 -0.027869
 -0.029779
 -0.030415
 -0.031052
 -0.030415
 -0.028506
 -0.029779
 -0.030415
 -0.029779
 -0.029779
 -0.029142
 -0.041236
 -0.031052
 -0.028506
 -0.031052
   -0.0406
 -0.029779
 -0.029142
 -0.020231
 -0.018958
 -0.020868
 -0.020231
 -0.019595
 -0.020231
 -0.029779
 -0.021504
 -0.020231
 -0.020231
 -0.020231
 -0.021504
 -0.020868
 -0.020868
 -0.018958
 -0.010683
  -0.01132
 -0.010683
 -0.017048
 -0.018958
 -0.019595
 -0.018958
 -0.017685
 -0.010047
 -0.010683
 -0.010683
 -0.020868
  -0.00941
 -0.019595
 -0.010047
 -0.031052
 -0.010683
 -0.010683
 -0.010683
 -0.020868
  -0.01132
 -0.029779
  -0.00941
 -0.020868
 -0.010683
 -0.020868
 -0.000499
 -0.008137
 -0.006864
 -0.004318
 -0.012593
 -0.004318
 -0.010683
 -0.001136
  0.000137
  0.007139
 -0.001136
  0.007776
  0.000137
  0.009685
  0.009049
  0.019233
  0.019869
  0.018596
  0.018596
  0.018596
  0.009049
  0.019233
  0.016687
  0.017323
  0.037692
  0.028144
  0.028781
  0.026871
  0.028144
   0.01796
  0.018596
  0.018596
  0.026871
  0.017323
  0.019233
  0.018596
  0.045967
  0.035146
  0.036419
  0.037055
  0.046603
  0.036419
  0.037692
  0.042784
  0.042147
  0.042784
  0.038965
   0.04533
  0.039601
  0.045967
  0.037692
  0.037692
  0.028781
  0.037055
  0.028144
  0.036419
  0.029417
  0.028781
  0.028144
  0.026871
  0.019233
  0.019233
  0.019233
  0.026235
   0.01796
  0.018596
  0.019233
  0.018596
  0.009049
  0.009049
  0.009049
  0.018596
  0.007139
  0.008412
  0.009685
  0.008412
  0.007776
  0.007776
  0.000137
 -0.000499
 -0.000499
  0.009049
 -0.000499
 -0.001772
 -0.010683
 -0.008774
  -0.00941
  -0.01132
 -0.003682
 -0.006864
 -0.010683
 -0.011956
 -0.010047
 -0.010047
 -0.010683
  -0.01132
 -0.010683
 -0.010047
 -0.010047
  -0.01132
 -0.010683
 -0.010047
  -0.01132
 -0.010683
  -0.00941
 -0.010047
 -0.011956
  -0.01132
 -0.010047
 -0.008774
 -0.010683
  -0.01132
 -0.010047
 -0.008774
 -0.010683
 -0.010683
 -0.010047
 -0.008137
 -0.010047
  -0.01132
  -0.00941
 -0.010047
 -0.010683
 -0.010683
  -0.00941
 -0.008774
 -0.010683
  -0.01132
 -0.010683
 -0.010047
 -0.010683
  -0.01132
 -0.010683
  -0.00941
 -0.010047
 -0.010683
  -0.01132
 -0.008774
 -0.010047
  -0.00941
 -0.010047
 -0.010047
 -0.010683
 -0.020868
 -0.010047
 -0.020868
 -0.010683
 -0.020868
 -0.010683
 -0.010683
  0.009685
  0.000137
  0.007139
  0.007776
  0.019233
  0.009049
  0.007776
  0.006503
  0.017323
  0.019233
   0.01796
  0.009049
   0.01796
   0.01796
  0.019233
  0.028144
  0.027508
  0.026871
  0.027508
  0.023052
  0.019233
  0.017323
  0.016687
  0.016687
  0.018596
   0.01796
  0.016687
  0.017323
  0.026871
  0.019869
  0.018596
   0.01796
  0.019233
  0.019233
  0.027508
  0.017323
  0.019233
  0.010322
  0.018596
  0.017323
  0.019233
  0.009049
  0.009049
  0.007139
   0.01796
  0.009685
  0.009049
 -0.001772
 -0.001136
  0.000137
  0.009049
 -0.000499
 -0.000499
 -0.000499
 -0.000499
 -0.010683
 -0.010683
 -0.010047
  -0.00941
  -0.00941
  -0.01132
  -0.00941
 -0.008774
 -0.010047
  -0.01132
  -0.00941
 -0.010047
 -0.010047
 -0.011956
 -0.010683
 -0.008774
 -0.010047
  -0.01132
 -0.010047
  -0.00941
 -0.010047
 -0.010683
 -0.010047
 -0.008774
 -0.010683
  -0.01132
 -0.010683
 -0.010047
 -0.010047
  -0.01132
 -0.010683
  -0.00941
 -0.010047
 -0.010683
 -0.010047
  -0.00941
 -0.010047
  -0.01132
  -0.00941
 -0.010047
 -0.011956
 -0.010683
 -0.010047
 -0.010683
  0.024962
 -0.010683
 -0.004318
 -0.012593
 -0.013866
 -0.033598
 -0.039327
 -0.063514
  -0.05333
 -0.158991
  -0.09534
 -0.275474
 -0.127802
 -0.201001
 -0.148807
 -0.230918
 -0.148171
 -0.286931
 -0.116981
 -0.202274
 -0.128439
 -0.182542
 -0.125256
 -0.223279
 -0.098522
 -0.116345
  -0.06797
 -0.145625
 -0.059058
 -0.057785
 -0.047601
 -0.048874
 -0.030415
 -0.010047
 -0.010047
  0.056787
  0.026871
  0.096251
  0.049149
  0.086704
   0.04724
  0.135715
  0.075883
  0.222918
  0.122348
  0.163722
  0.161812
  0.147172
  0.180271
  0.124894
  0.178362
  0.124894
  0.273839
  0.107072
   0.21337
   0.12935
  0.208914
  0.068881
   0.04724
  0.047876
 -0.018322
  0.007139
 -0.059058
 -0.020868
 -0.020868
 -0.021504
 -0.106161
 -0.048874
 -0.048874
 -0.031052
 -0.029142
 -0.029142
 -0.029142
 -0.030415
 -0.030415
 -0.029142
 -0.029142
 -0.031052
 -0.029142
 -0.030415
 -0.029142
 -0.030415
 -0.031052
 -0.029142
 -0.029779
 -0.030415
 -0.031052
 -0.029142
 -0.029142
 -0.029779
 -0.029779
 -0.030415
 -0.029142
 -0.029779
 -0.029142
 -0.029142
 -0.029142
 -0.029142
 -0.029142
 -0.029142
 -0.031052
 -0.030415
 -0.029142
 -0.039963
 -0.030415
 -0.031052
 -0.029779
 -0.038053
 -0.029142
 -0.031052
 -0.020868
 -0.020231
 -0.019595
 -0.019595
 -0.020231
 -0.021504
 -0.019595
 -0.029142
 -0.020868
 -0.022141
 -0.020868
 -0.020231
 -0.018958
 -0.019595
 -0.020231
 -0.020868
 -0.010683
 -0.008774
 -0.013229
 -0.018958
 -0.018958
 -0.017048
 -0.017685
  -0.01132
 -0.010683
 -0.010683
 -0.018958
 -0.011956
 -0.021504
 -0.011956
 -0.030415
 -0.010683
 -0.010683
 -0.011956
 -0.020868
 -0.010683
 -0.029142
 -0.010683
 -0.020231
 -0.008774
 -0.021504
 -0.000499
  -0.01132
  0.000137
 -0.010683
 -0.001136
 -0.021504
 -0.001772
 -0.010683
 -0.000499
 -0.000499
  0.007776
 -0.001136
  0.009049
 -0.000499
  0.009049
  0.009049
  0.019233
  0.018596
  0.019869
  0.018596
  0.012868
  0.014777
  0.018596
  0.019233
  0.034509
  0.029417
  0.027508
  0.029417
  0.027508
  0.018596
  0.017323
  0.019233
  0.028144
   0.01796
  0.017323
  0.017323
  0.046603
  0.037055
  0.036419
  0.037055
  0.047876
  0.037055
  0.036419
  0.037692
  0.047876
  0.037692
  0.045967
  0.037692
  0.049149
  0.037055
  0.045967
  0.037055
  0.037692
  0.028781
  0.038328
  0.026871
  0.037055
  0.028781
  0.027508
  0.027508
  0.024962
  0.019233
  0.018596
  0.024962
  0.020506
  0.019233
   0.01796
   0.01796
  0.009049
  0.009049
  0.007776
  0.016687
  0.009049
  0.009685
  0.009049
  0.007139
  0.009049
  0.009685
 -0.000499
 -0.000499
 -0.001136
  0.008412
  0.000774
 -0.000499
 -0.010683
 -0.010683
 -0.010683
  -0.01132
  -0.01132
 -0.000499
 -0.010047
 -0.010683
  -0.01132
 -0.008774
 -0.010047
 -0.010047
 -0.011956
  -0.01132
 -0.010683
 -0.010047
 -0.010047
  -0.01132
 -0.010683
 -0.008774
 -0.010683
 -0.011956
  -0.00941
 -0.010683
 -0.011956
 -0.010047
  -0.00941
 -0.010683
  -0.01132
 -0.010683
  -0.00941
 -0.010047
  -0.01132
 -0.010047
 -0.010683
  -0.00941
 -0.010047
  -0.01132
 -0.010683
  -0.01132
 -0.010683
  -0.01132
 -0.008774
 -0.010047
  -0.01132
 -0.010047
 -0.010047
 -0.008774
 -0.010683
 -0.010683
 -0.010047
 -0.010047
 -0.010683
 -0.008774
 -0.010047
 -0.010047
 -0.010683
 -0.010047
 -0.010047
 -0.012593
 -0.016412
 -0.016412
 -0.014502
 -0.016412
 -0.012593
  -0.01132
  0.007139
   0.00141
  0.007776
  0.007776
  0.019233
  0.009049
  0.009049
  0.007776
   0.01605
  0.017323
   0.01796
  0.008412
  0.016687
  0.018596
  0.019233
  0.028144
  0.027508
  0.027508
  0.028781
  0.028144
   0.01605
  0.018596
   0.01796
  0.017323
  0.016687
  0.017323
  0.019233
   0.01796
  0.017323
  0.027508
  0.019233
  0.018596
  0.019233
  0.016687
  0.019233
  0.024962
  0.018596
  0.011595
  0.014777
  0.019233
  0.019233
  0.009049
  0.009049
  0.008412
   0.01796
  0.009049
  0.008412
 -0.000499
 -0.001136
 -0.001772
  0.009049
 -0.000499
  0.000137
 -0.000499
 -0.000499
 -0.010683
 -0.010047
 -0.010683
 -0.010683
 -0.010683
  -0.00941
 -0.010683
 -0.011956
 -0.010683
  -0.00941
  -0.00941
 -0.010683
 -0.010683
 -0.010047
  -0.00941
 -0.010683
  -0.01132
 -0.010047
 -0.010047
 -0.010683
  -0.01132
  -0.00941
  -0.00941
  -0.01132
 -0.010047
 -0.008774
 -0.010683
 -0.010683
 -0.010047
 -0.010047
  -0.00941
 -0.011956
 -0.008137
 -0.008774
 -0.010047
  -0.01132
 -0.010683
 -0.010683
 -0.010683
 -0.010683
 -0.010683
 -0.010683
 -0.010683
 -0.010683
  0.026871
 -0.010047
 -0.000499
 -0.020868
 -0.001772
 -0.022141
   -0.0406
 -0.039963
 -0.068606
 -0.050147
 -0.174904
 -0.088338
 -0.289477
 -0.115072
  -0.20482
 -0.145625
 -0.233464
 -0.145625
 -0.288841
 -0.129075
 -0.178723
 -0.153899
 -0.147534
    -0.194
 -0.128439
 -0.113799
 -0.074335
  -0.13544
 -0.065424
 -0.058422
 -0.049511
 -0.050147
 -0.029142
 -0.010683
 -0.010047
  0.054878
  0.028144
  0.096251
  0.047876
  0.087977
   0.04724
  0.134442
  0.078429
  0.229283
  0.084794
  0.219735
  0.095615
  0.212734
  0.115347
   0.20064
  0.103889
  0.192365
  0.114074
  0.289115
  0.093705
  0.219735
  0.125531
  0.210824
  0.066335
  0.044694
  0.047876
 -0.014502
 -0.017685
 -0.041236
 -0.020868
 -0.020868
 -0.088338
 -0.060968
  -0.05142
 -0.032325
 -0.029142
 -0.031052
 -0.031688
 -0.030415
 -0.029779
 -0.029779
 -0.029779
 -0.030415
 -0.031052
 -0.029779
 -0.029142
 -0.029779
 -0.030415
 -0.029779
 -0.029779
 -0.030415
 -0.030415
 -0.030415
 -0.029142
 -0.029142
 -0.029142
 -0.031052
 -0.029142
 -0.030415
 -0.028506
 -0.028506
 -0.029142
 -0.030415
 -0.029142
 -0.029779
 -0.028506
 -0.029779
 -0.029142
 -0.033598
  -0.03678
 -0.029142
 -0.030415
  -0.03678
 -0.031688
 -0.031052
 -0.022141
 -0.020231
 -0.018958
 -0.019595
 -0.020231
 -0.020868
 -0.020868
 -0.028506
 -0.018958
 -0.020231
 -0.018958
 -0.020868
 -0.019595
 -0.020868
 -0.019595
 -0.018958
 -0.010683
 -0.011956
 -0.011956
 -0.018958
 -0.018958
 -0.018322
 -0.018958
 -0.018322
 -0.010683
  -0.00941
  -0.00941
 -0.022141
  -0.01132
 -0.020231
 -0.010683
 -0.030415
 -0.010683
  -0.01132
  -0.01132
 -0.016412
 -0.018958
 -0.019595
 -0.017048
 -0.012593
 -0.018958
 -0.003045
 -0.010683
 -0.000499
  -0.00941
 -0.001136
 -0.020231
 -0.001772
 -0.010683
 -0.001136
 -0.000499
  0.009049
 -0.003045
  0.008412
   0.00141
  0.010322
  0.010322
   0.01796
  0.019233
  0.019869
  0.019233
  0.017323
  0.009049
  0.019233
  0.019233
  0.019233
  0.035782
  0.028144
  0.029417
  0.028781
  0.027508
  0.018596
  0.019233
   0.01796
  0.027508
  0.018596
  0.018596
  0.027508
  0.040238
  0.037692
  0.036419
   0.04533
  0.039601
  0.037692
  0.036419
   0.04724
  0.038965
  0.045967
  0.039601
   0.04724
  0.038328
  0.045967
  0.038328
  0.038965
  0.029417
  0.037055
  0.026871
  0.038328
  0.027508
  0.026871
  0.028144
  0.028781
  0.018596
  0.018596
  0.018596
  0.028781
  0.018596
  0.017323
  0.017323
  0.019233
  0.009049
  0.009049
  0.009685
  0.019233
  0.006503
  0.008412
  0.009685
  0.009685
  0.007139
  0.004593
 -0.000499
 -0.000499
   0.00523
   0.00141
 -0.000499
 -0.010683
 -0.010683
 -0.010683
 -0.010683
 -0.010683
 -0.000499
  -0.00941
  -0.01132
  -0.01132
 -0.010047
  -0.00941
 -0.010683
 -0.010683
 -0.010047
 -0.010683
 -0.010683
 -0.010683
 -0.010683
 -0.010047
 -0.010683
 -0.010683
  -0.00941
  -0.00941
 -0.010683
 -0.010047
  -0.00941
 -0.010047
  -0.01132
 -0.010047
 -0.010683
 -0.010047
 -0.010683
  -0.01132
 -0.010683
 -0.008774
 -0.010683
 -0.011956
 -0.010047
  -0.00941
 -0.010047
 -0.010683
 -0.010683
 -0.008774
 -0.008774
  -0.01132
 -0.010047
 -0.010047
 -0.010683
 -0.010683
 -0.010683
 -0.010047
 -0.010047
  -0.01132
 -0.010047
 -0.010047
 -0.010683
 -0.010683
  -0.00941
 -0.008774
 -0.010047
 -0.021504
 -0.010683
 -0.020231
 -0.010047
 -0.021504
 -0.010683
 -0.010683
  0.009685
 -0.000499
  0.009049
  0.009049
  0.019233
  0.008412
  0.007776
  0.008412
  0.018596
  0.017323
  0.013504
  0.013504
  0.019233
   0.01796
  0.024325
  0.028781
  0.028781
  0.027508
  0.028144
  0.019233
  0.019233
  0.018596
  0.016687
  0.016687
   0.01796
  0.017323
  0.016687
   0.01796
  0.029417
   0.01796
  0.016687
  0.018596
  0.019869
  0.019233
  0.026871
  0.018596
  0.017323
  0.009685
  0.018596
  0.016687
  0.019233
  0.008412
  0.008412
  0.008412
  0.018596
  0.009049
  0.007776
 -0.000499
  0.000137
  0.000137
  0.009049
  0.000137
  0.000774
  0.000137
 -0.006228
 -0.010683
  -0.00941
  -0.01132
 -0.010683
 -0.010047
  -0.00941
 -0.010047
  -0.01132
 -0.008774
 -0.010047
 -0.010683
 -0.010683
  -0.00941
 -0.010683
 -0.010683
 -0.010047
  -0.00941
 -0.010047
 -0.011956
  -0.01132
 -0.010047
 -0.008774
 -0.010683
 -0.010683
  -0.00941
 -0.010683
 -0.010683
 -0.010683
 -0.010683
 -0.010683
  -0.01132
 -0.008774
 -0.010683
  -0.01132
 -0.010683
  -0.00941
 -0.010047
 -0.011956
 -0.010047
 -0.010683
 -0.010683
 -0.010047
 -0.008774
  0.019233
 -0.005591
 -0.003045
 -0.018322
 -0.001772
 -0.020231
 -0.039327
 -0.039327
  -0.06797
 -0.050147
 -0.172995
 -0.088975
 -0.287567
 -0.118254
 -0.203547
 -0.145625
 -0.232827
 -0.146898
 -0.290114
 -0.115708
 -0.203547
 -0.127166
 -0.183815
 -0.125256
 -0.223916
 -0.099159
 -0.116981
 -0.066697
 -0.144352
 -0.059058
 -0.057149
 -0.048874
 -0.049511
 -0.031052
 -0.010683
  -0.00941
  0.055514
  0.044694
  0.075883
  0.070791
  0.061243
  0.111528
   0.08925
  0.206368
  0.103253
  0.207641
  0.103253
  0.205732
  0.119802
  0.200003
  0.106435
  0.189182
   0.11662
  0.285933
  0.095615
  0.219099
  0.124894
  0.212097
  0.066972
   0.04724
  0.045967
 -0.018958
  0.009049
 -0.058422
 -0.021504
 -0.020868
 -0.020868
 -0.107434
 -0.049511
 -0.050784
 -0.029779
 -0.029142
 -0.030415
 -0.031052
 -0.029779
 -0.030415
 -0.029142
 -0.029142
 -0.029779
 -0.031052
 -0.029142
 -0.029779
 -0.030415
 -0.031688
 -0.031052
 -0.029142
 -0.031052
 -0.031052
 -0.030415
 -0.029142
 -0.029779
 -0.030415
 -0.029779
 -0.029142
 -0.029779
 -0.031052
 -0.030415
 -0.029142
 -0.029142
 -0.030415
 -0.031052
 -0.029779
 -0.029142
 -0.030415
 -0.041236
 -0.030415
 -0.029779
 -0.030415
 -0.039963
 -0.030415
 -0.028506
 -0.020231
 -0.018958
 -0.020868
 -0.019595
 -0.020231
 -0.018958
 -0.021504
 -0.030415
 -0.020868
 -0.018958
 -0.020868
 -0.022141
 -0.020868
 -0.020868
 -0.020231
 -0.013866
 -0.010047
 -0.010047
 -0.018958
 -0.018958
 -0.018958
 -0.018958
 -0.018322
  -0.01132
 -0.010683
 -0.010047
 -0.020868
 -0.011956
 -0.020231
 -0.010683
 -0.029779
 -0.011956
 -0.010683
 -0.010047
 -0.020231
 -0.010683
 -0.030415
  -0.00941
 -0.018958
 -0.010683
 -0.021504
 -0.001136
 -0.010047
 -0.001136
 -0.010683
 -0.001772
 -0.020231
 -0.000499
  -0.01132
 -0.001772
 -0.000499
  0.007139
   0.00332
  0.002683
  0.005866
  0.009049
  0.016687
   0.01796
  0.020506
  0.020506
  0.018596
  0.007776
  0.017323
  0.019233
  0.017323
  0.035146
  0.027508
  0.029417
  0.027508
  0.027508
   0.01796
  0.019233
   0.01796
  0.027508
  0.017323
  0.019233
   0.01796
  0.045967
  0.036419
  0.037055
  0.037055
  0.045967
  0.036419
  0.037055
  0.039601
   0.04724
  0.035782
  0.047876
  0.038965
  0.047876
  0.036419
   0.04724
  0.038965
  0.035782
  0.031963
   0.03069
  0.033873
  0.031963
  0.027508
  0.025598
  0.028144
  0.021142
  0.017323
  0.018596
  0.028144
  0.020506
  0.019233
  0.017323
   0.01796
  0.010322
  0.009685
  0.007776
  0.017323
  0.008412
  0.008412
  0.009049
  0.009049
  0.009049
  0.009049
  0.000774
  0.000137
 -0.000499
  0.007776
 -0.000499
  0.000137
 -0.010683
  -0.01132
 -0.010047
  -0.00941
 -0.010683
 -0.000499
  -0.01132
 -0.008774
 -0.010047
  -0.01132
 -0.010047
 -0.008774
 -0.010683
 -0.010683
  -0.01132
 -0.010047
  -0.00941
 -0.010683
 -0.010683
 -0.010683
 -0.008774
 -0.010047
 -0.010047
 -0.011956
 -0.010683
 -0.010683
 -0.010683
 -0.010683
 -0.010683
 -0.010683
 -0.010683
  -0.01132
 -0.010683
 -0.008774
 -0.010683
 -0.010683
 -0.010047
 -0.008137
 -0.010683
 -0.010047
 -0.010683
 -0.010047
 -0.010683
  -0.01132
 -0.010683
 -0.008774
  -0.01132
  -0.01132
 -0.010047
  -0.00941
 -0.010683
  -0.01132
 -0.010047
 -0.010683
  -0.00941
  -0.01132
  -0.01132
  -0.00941
 -0.010683
 -0.020231
 -0.010683
 -0.020231
 -0.010683
 -0.020868
 -0.011956
 -0.010683
  0.009049
 -0.000499
  0.006503
  0.008412
  0.019233
  0.009049
  0.007139
  0.008412
  0.018596
  0.019233
  0.016687
  0.007776
  0.019233
  0.017323
  0.016687
  0.027508
  0.029417
  0.027508
  0.026871
  0.027508
  0.018596
  0.017323
   0.01605
  0.017323
  0.019233
  0.017323
  0.018596
  0.019233
  0.023052
  0.022415
  0.018596
  0.019233
  0.019233
  0.017323
  0.026871
  0.019233
  0.016687
  0.008412
  0.018596
  0.019233
  0.017323
  0.008412
  0.009685
  0.009049
  0.017323
  0.009685
  0.009049
 -0.001772
 -0.001772
 -0.000499
  0.010322
  0.000137
 -0.001136
 -0.000499
  0.000137
  -0.01132
 -0.010683
 -0.010683
 -0.010047
 -0.010047
 -0.010683
 -0.011956
 -0.008774
 -0.010047
 -0.008774
 -0.011956
 -0.010683
  -0.00941
 -0.010047
  -0.01132
 -0.010683
 -0.008774
 -0.010683
 -0.010047
 -0.008774
 -0.008774
 -0.010683
 -0.010683
 -0.010683
 -0.008774
 -0.010683
 -0.010047
 -0.010047
 -0.010047
 -0.010683
  -0.01132
 -0.010047
  -0.00941
 -0.008774
 -0.010683
  -0.01132
 -0.010683
 -0.010683
 -0.008774
 -0.010047
 -0.010683
  -0.00941
 -0.010047
 -0.010047
  0.024962
 -0.010683
 -0.001136
 -0.020231
 -0.001772
 -0.021504
 -0.041236
   -0.0406
 -0.068606
 -0.048874
 -0.176177
 -0.115708
 -0.232827
 -0.158355
 -0.169176
  -0.20864
 -0.167266
 -0.264653
 -0.139896
 -0.193363
 -0.132894
 -0.179996
 -0.127802
 -0.218187
 -0.101705
 -0.116981
 -0.069243
 -0.143079
 -0.059058
 -0.056512
 -0.049511
 -0.047601
 -0.029142
 -0.008774
 -0.010683
  0.055514
  0.027508
  0.096251
  0.047876
  0.086067
  0.047876
  0.136352
  0.075246
  0.228646
   0.08543
  0.221008
  0.095615
  0.210824
   0.11471
  0.202549
  0.105799
  0.191092
  0.113437
  0.251561
  0.143353
   0.17136
  0.178362
  0.108345
  0.050422
  0.047876
 -0.013229
  0.004593
 -0.053966
 -0.022141
 -0.020868
 -0.020868
 -0.106797
 -0.050784
 -0.047601
 -0.030415
 -0.031688
 -0.029779
 -0.029142
 -0.028506
 -0.030415
 -0.030415
 -0.030415
 -0.029142
 -0.029142
 -0.030415
 -0.031052
 -0.029142
 -0.029779
 -0.031052
 -0.029779
 -0.029142
 -0.029142
 -0.030415
 -0.030415
 -0.030415
 -0.029142
 -0.029142
 -0.030415
 -0.031688
 -0.029142
 -0.029142
 -0.028506
 -0.030415
 -0.030415
 -0.029779
 -0.028506
 -0.029142
 -0.031688
 -0.039327
 -0.031052
 -0.030415
 -0.029142
 -0.039327
 -0.030415
 -0.029779
 -0.020231
 -0.021504
 -0.019595
 -0.020868
 -0.019595
 -0.019595
 -0.021504
 -0.029779
 -0.020231
 -0.019595
 -0.020231
 -0.020868
 -0.019595
 -0.020231
 -0.020231
 -0.020231
  -0.01132
 -0.010047
  -0.00941
 -0.018322
 -0.017685
 -0.020231
 -0.018958
 -0.018322
 -0.010683
 -0.010047
 -0.011956
 -0.015775
 -0.013866
 -0.015139
 -0.025323
 -0.015775
  -0.00941
 -0.010047
 -0.021504
 -0.012593
 -0.029142
 -0.010683
 -0.019595
 -0.010683
 -0.020231
 -0.000499
 -0.010683
 -0.000499
 -0.010683
 -0.000499
 -0.021504
 -0.002409
 -0.010047
 -0.000499
 -0.001136
  0.007139
 -0.001136
  0.008412
 -0.000499
  0.008412
  0.009049
  0.019869
  0.018596
  0.017323
  0.019233
  0.019233
  0.007139
  0.018596
  0.019233
  0.018596
  0.036419
  0.028144
  0.028144
  0.028144
  0.022415
  0.018596
  0.019869
  0.024962
  0.019869
  0.017323
  0.019233
  0.044057
  0.036419
  0.037055
  0.037055
  0.045967
  0.037692
  0.037692
  0.037692
  0.047876
  0.037055
  0.047876
  0.039601
   0.04724
  0.036419
   0.04724
  0.039601
  0.038328
  0.024962
  0.036419
  0.027508
  0.038965
  0.028144
  0.027508
  0.027508
  0.029417
  0.018596
   0.01796
  0.018596
  0.027508
   0.01796
  0.018596
  0.018596
  0.017323
  0.008412
  0.008412
  0.014777
  0.012231
  0.007139
  0.009049
  0.009685
  0.009049
  0.009049
 -0.000499
 -0.001136
 -0.000499
  0.009049
 -0.000499
 -0.000499
  -0.00941
 -0.010683
  -0.01132
 -0.010683
 -0.010683
  0.000137
 -0.010683
 -0.010683
 -0.008774
  -0.01132
 -0.010683
 -0.010047
  -0.00941
 -0.010683
  -0.01132
 -0.010683
  -0.00941
 -0.010683
 -0.010047
 -0.010683
 -0.010683
 -0.010047
 -0.010683
 -0.010047
 -0.010683
 -0.010683
  -0.01132
  -0.00941
  -0.00941
 -0.010683
  -0.01132
  -0.00941
 -0.010683
 -0.010683
 -0.010047
 -0.010047
 -0.010683
  -0.01132
  -0.01132
 -0.010683
  -0.01132
 -0.010047
  -0.00941
 -0.010047
 -0.010683
 -0.010683
  -0.00941
 -0.010047
  -0.01132
 -0.010047
 -0.010047
 -0.010683
  -0.01132
  -0.00941
  -0.00941
 -0.008774
 -0.010683
 -0.010683
 -0.019595
 -0.010683
 -0.020231
  -0.00941
 -0.020868
 -0.010683
 -0.010683
  0.009049
 -0.000499
  0.007776
  0.009685
   0.01605
  0.009049
  0.007139
  0.014141
   0.01796
  0.019233
  0.009685
  0.016687
  0.017323
  0.019233
  0.028144
  0.026871
  0.026871
  0.028781
  0.026871
  0.016687
  0.016687
   0.01796
  0.017323
  0.016687
  0.017323
  0.018596
   0.01796
  0.016687
  0.027508
  0.019233
  0.019233
  0.017323
  0.019233
  0.018596
  0.028144
  0.017323
   0.01796
  0.009685
  0.018596
   0.01796
  0.018596
  0.009685
  0.009049
  0.009049
  0.018596
  0.010322
  0.006503
 -0.001772
 -0.000499
  0.007139
  0.002047
 -0.000499
 -0.000499
  0.000137
 -0.008774
 -0.011956
 -0.010683
 -0.010047
 -0.010683
  -0.01132
  -0.01132
  -0.01132
 -0.008774
 -0.010047
 -0.010683
 -0.010047
 -0.008774
 -0.008774
 -0.010683
 -0.010683
 -0.010683
  -0.00941
 -0.010683
 -0.010683
  -0.01132
 -0.010683
 -0.010047
 -0.010683
 -0.011956
 -0.010683
 -0.010683
 -0.010683
 -0.010683
 -0.010047
 -0.010683
  -0.00941
  -0.00941
  -0.01132
  -0.01132
  -0.00941
 -0.010047
  -0.01132
 -0.010683
  -0.00941
 -0.010047
  -0.01132
 -0.010047
 -0.010683
  0.026235
 -0.010047
 -0.002409
 -0.020868
 -0.001136
 -0.019595
   -0.0406
   -0.0406
 -0.066697
 -0.049511
 -0.176177
 -0.089611
 -0.288204
 -0.116345
 -0.204184
 -0.145625
 -0.231554
 -0.146898
  -0.29075
 -0.115708
 -0.202274
 -0.125893
 -0.183815
 -0.126529
 -0.223279
 -0.097886
 -0.115708
  -0.06797
 -0.144352
 -0.057785
 -0.057149
 -0.047601
   -0.0406
 -0.018958
 -0.010047
  0.037692
  0.034509
   0.08543
  0.054878
  0.082884
  0.049786
  0.129987
  0.080338
  0.225464
   0.08925
  0.217826
  0.096251
  0.210824
  0.115983
  0.202549
  0.104526
  0.190456
  0.114074
  0.287842
  0.096251
  0.220372
  0.124894
  0.211461
  0.066335
  0.047876
  0.047876
 -0.020231
  0.007776
 -0.059695
 -0.020231
 -0.020868
 -0.021504
  -0.10807
 -0.048874
 -0.048874
 -0.030415
 -0.029779
 -0.029779
 -0.030415
 -0.031052
 -0.030415
 -0.029142
 -0.030415
 -0.029142
 -0.032325
 -0.029779
 -0.028506
 -0.029779
 -0.031052
 -0.030415
 -0.028506
 -0.028506
 -0.031052
 -0.031052
 -0.029779
 -0.029142
 -0.029142
 -0.031052
 -0.029142
 -0.028506
 -0.029779
 -0.030415
 -0.029142
 -0.028506
 -0.029142
 -0.031052
  0.022768
  0.025315
  0.020221
  0.027862
  0.027862
  0.032955
  0.040595
  0.035502
  0.035502
  0.043142
  0.048235
  0.040595
  0.060969
  0.058422
  0.050782
  0.048235
  0.035502
  0.043142
  0.048235
  0.040595
  0.038048
  0.043142
  0.048235
  0.040595
  0.035502
  0.043142
  0.048235
  0.045688
  0.040595
  0.043142
  0.038048
  0.027862
  0.027862
  0.027862
  0.038048
  0.030408
  0.015128
  0.022768
  0.027862
  0.027862
  0.007488
  0.015128
  0.015128
  0.007488
  0.010035
  0.012581
  0.007488
  0.004941
  0.002395
  0.004941
  0.007488
 -0.000152
 -0.005246
 -0.012886
 -0.010339
 -0.005246
 -0.010339
 -0.012886
 -0.012886
 -0.005246
 -0.005246
 -0.007792
 -0.012886
 -0.007792
 -0.002699
 -0.007792
 -0.012886
 -0.005246
 -0.002699
 -0.010339
 -0.012886
 -0.012886
 -0.005246
 -0.000152
 -0.007792
 -0.012886
 -0.010339
 -0.005246
 -0.005246
 -0.012886
 -0.012886
 -0.007792
 -0.017979
 -0.007792
 -0.002699
 -0.007792
 -0.012886
 -0.010339
 -0.002699
 -0.007792
 -0.012886
 -0.012886
 -0.007792
 -0.002699
 -0.007792
 -0.012886
 -0.007792
 -0.002699
 -0.010339
 -0.012886
 -0.043446
 -0.043446
 -0.051086
 -0.061273
 -0.074006
  -0.06382
 -0.053633
 -0.056179
 -0.023072
 -0.020526
  0.104262
  0.091529
  0.300358
  0.305452
  0.386946
  0.389493
   0.46844
  0.478627
  0.618695
  0.613602
  0.705283
  0.712923
  0.763857
   0.76131
  0.860632
  0.865725
  0.883552
  0.875912
  0.949766
  0.962499
  0.959953
  0.952313
  0.947219
  0.942126
  0.944673
  0.883552
  0.865725
  0.812244
  0.804604
  0.766404
  0.758764
  0.679816
  0.682363
  0.524467
  0.516827
  0.384399
  0.389493
  0.277438
  0.272344
  0.180663
  0.188303
  0.104262
  0.106809
 -0.074006
 -0.076553
 -0.201341
 -0.196248
 -0.282836
 -0.293022
 -0.265009
 -0.265009
 -0.198794
 -0.203888
 -0.130034
 -0.127487
  -0.13258
  -0.13258
 -0.043446
 -0.038353
 -0.045993
 -0.051086
 -0.045993
 -0.038353
 -0.045993
 -0.048539
 -0.045993
 -0.038353
 -0.045993
 -0.053633
 -0.045993
 -0.038353
 -0.048539
 -0.053633
 -0.043446
 -0.038353
 -0.045993
 -0.045993
 -0.045993
 -0.038353
 -0.045993
 -0.048539
 -0.045993
 -0.038353
 -0.045993
 -0.051086
 -0.043446
 -0.043446
 -0.045993
 -0.045993
 -0.048539
 -0.045993
 -0.038353
 -0.040899
 -0.045993
 -0.030712
 -0.033259
 -0.038353
 -0.038353
 -0.017979
 -0.025619
 -0.030712
 -0.033259
 -0.023072
 -0.025619
 -0.030712
 -0.033259
 -0.025619
 -0.012886
 -0.015432
 -0.017979
 -0.012886
 -0.002699
 -0.012886
 -0.017979
 -0.015432
 -0.007792
 -0.015432
 -0.017979
 -0.015432
 -0.005246
 -0.005246
 -0.007792
 -0.007792
 -0.005246
 -0.007792
 -0.007792
 -0.012886
  0.002395
  0.004941
  0.012581
  0.012581
  0.032955
  0.035502
  0.030408
  0.030408
  0.035502
  0.043142
  0.068609
  0.060969
  0.068609
  0.068609
  0.086436
  0.083889
  0.088982
  0.091529
  0.104262
  0.109356
  0.119543
  0.132276
  0.129729
  0.124636
  0.129729
  0.139916
  0.139916
  0.139916
  0.147556
  0.150103
   0.15265
  0.147556
  0.142463
  0.147556
   0.15265
   0.16029
   0.15265
   0.16029
   0.16029
  0.142463
  0.129729
   0.13737
  0.142463
  0.139916
  0.132276
  0.134823
  0.142463
  0.129729
  0.122089
  0.129729
  0.132276
  0.106809
  0.104262
  0.096622
  0.096622
  0.096622
  0.091529
  0.083889
  0.088982
  0.088982
  0.076249
  0.063515
  0.063515
  0.066062
  0.050782
  0.048235
  0.050782
  0.058422
  0.043142
  0.038048
  0.027862
  0.038048
  0.030408
  0.027862
  0.027862
  0.035502
  0.030408
  0.025315
  0.022768
  0.025315
  0.015128
  0.020221
  0.025315
  0.022768
  0.012581
  0.025315
  0.015128
  0.012581
  0.007488
  0.012581
  0.020221
  0.015128
  0.007488
  0.012581
  0.017675
  0.015128
 -0.005246
  0.002395
  0.007488
  0.004941
 -0.002699
  0.002395
  0.007488
 -0.002699
 -0.010339
 -0.005246
 -0.000152
 -0.007792
 -0.012886
 -0.005246
 -0.002699
 -0.012886
 -0.012886
 -0.012886
 -0.002699
 -0.005246
 -0.007792
 -0.012886
 -0.012886
 -0.000152
 -0.012886
 -0.005246
 -0.010339
 -0.002699
 -0.005246
 -0.007792
 -0.012886
 -0.002699
 -0.012886
 -0.012886
 -0.005246
 -0.002699
 -0.007792
 -0.015432
 -0.005246
 -0.002699
 -0.007792
 -0.012886
 -0.002699
 -0.010339
 -0.012886
 -0.007792
 -0.010339
 -0.002699
 -0.005246
 -0.012886
 -0.007792
 -0.000152
 -0.010339
 -0.012886
 -0.007792
 -0.000152
 -0.012886
 -0.012886
 -0.007792
 -0.000152
 -0.007792
 -0.015432
 -0.002699
  0.007488
  0.012581
  0.007488
  0.022768
  0.027862
  0.020221
  0.017675
  0.032955
  0.032955
  0.038048
  0.030408
  0.038048
  0.043142
  0.048235
  0.038048
  0.040595
  0.043142
  0.058422
  0.050782
  0.048235
  0.048235
  0.048235
  0.038048
  0.040595
  0.048235
  0.043142
  0.043142
  0.038048
  0.045688
  0.043142
  0.035502
  0.038048
  0.048235
  0.043142
  0.030408
  0.035502
  0.030408
  0.025315
  0.027862
  0.030408
  0.027862
  0.022768
  0.017675
  0.022768
  0.017675
  0.010035
  0.004941
  0.010035
  0.010035
  0.007488
  0.007488
  0.007488
  0.002395
 -0.000152
 -0.002699
  0.007488
 -0.007792
 -0.010339
 -0.012886
 -0.010339
 -0.002699
 -0.010339
 -0.012886
 -0.007792
 -0.002699
 -0.010339
 -0.012886
 -0.005246
 -0.002699
 -0.007792
 -0.012886
 -0.015432
 -0.000152
 -0.007792
 -0.015432
 -0.005246
 -0.002699
 -0.010339
 -0.012886
 -0.005246
 -0.005246
 -0.005246
 -0.012886
 -0.012886
 -0.002699
 -0.012886
 -0.005246
 -0.012886
 -0.007792
 -0.002699
 -0.007792
 -0.012886
 -0.007792
 -0.005246
 -0.007792
 -0.012886
 -0.002699
 -0.007792
 -0.015432
 -0.007792
 -0.002699
 -0.010339
 -0.012886
 -0.007792
 -0.002699
 -0.045993
 -0.043446
 -0.053633
 -0.053633
 -0.074006
  -0.07146
 -0.056179
 -0.030712
 -0.017979
  0.071155
  0.096622
  0.287625
  0.300358
  0.376759
  0.389493
   0.47608
  0.481174
  0.613602
  0.613602
  0.705283
  0.710376
   0.76131
  0.758764
  0.860632
  0.860632
  0.878458
  0.878458
  0.962499
  0.957406
  0.954859
  0.954859
  0.962499
  0.954859
  0.931939
  0.939579
  0.878458
  0.870818
  0.804604
  0.809698
   0.76131
  0.758764
  0.679816
  0.679816
  0.524467
  0.516827
  0.384399
  0.353839
  0.272344
   0.21377
  0.185757
  0.122089
  0.099169
 -0.053633
 -0.074006
 -0.183514
 -0.196248
 -0.285382
 -0.285382
 -0.262462
 -0.265009
 -0.201341
 -0.198794
 -0.127487
  -0.13258
 -0.137674
 -0.130034
 -0.048539
 -0.040899
 -0.045993
 -0.045993
 -0.048539
 -0.040899
 -0.045993
 -0.051086
 -0.043446
 -0.040899
 -0.043446
 -0.051086
 -0.045993
 -0.035806
 -0.038353
 -0.045993
 -0.048539
 -0.040899
 -0.038353
 -0.045993
 -0.043446
 -0.048539
 -0.048539
 -0.038353
 -0.045993
 -0.048539
 -0.043446
 -0.040899
 -0.038353
 -0.043446
 -0.048539
 -0.043446
 -0.038353
 -0.043446
 -0.045993
 -0.043446
 -0.043446
 -0.030712
 -0.035806
 -0.043446
 -0.030712
 -0.023072
 -0.025619
 -0.030712
 -0.033259
 -0.025619
 -0.017979
 -0.023072
 -0.033259
 -0.025619
 -0.017979
 -0.015432
 -0.020526
 -0.015432
 -0.012886
 -0.015432
 -0.017979
 -0.017979
 -0.015432
 -0.012886
 -0.017979
 -0.023072
 -0.012886
 -0.010339
 -0.010339
 -0.007792
 -0.005246
 -0.010339
 -0.012886
 -0.005246
  0.007488
  0.004941
  0.004941
  0.010035
  0.038048
  0.035502
  0.025315
  0.030408
  0.048235
  0.043142
  0.058422
  0.063515
  0.076249
  0.066062
  0.076249
  0.081342
  0.096622
  0.091529
  0.094076
  0.099169
  0.127183
  0.119543
  0.124636
  0.129729
   0.13737
  0.127183
  0.134823
  0.139916
   0.15265
  0.150103
  0.142463
  0.150103
   0.15265
  0.147556
   0.14501
  0.147556
   0.16029
   0.16029
   0.15265
  0.139916
  0.139916
  0.142463
   0.13737
  0.132276
  0.139916
   0.14501
  0.139916
  0.124636
  0.129729
  0.134823
  0.127183
  0.094076
  0.096622
  0.104262
  0.099169
  0.083889
  0.088982
  0.091529
  0.088982
  0.076249
  0.083889
  0.076249
  0.068609
  0.058422
  0.066062
  0.050782
  0.058422
  0.053329
  0.045688
  0.038048
  0.048235
  0.027862
  0.025315
  0.030408
  0.030408
  0.038048
  0.032955
  0.025315
  0.025315
  0.027862
  0.027862
  0.027862
  0.017675
  0.017675
  0.025315
  0.022768
  0.007488
  0.015128
  0.017675
  0.012581
  0.007488
  0.007488
  0.020221
  0.012581
  0.004941
  0.012581
  0.004941
  0.002395
 -0.002699
  0.002395
  0.007488
  0.004941
 -0.002699
  0.004941
 -0.000152
 -0.005246
 -0.012886
 -0.005246
 -0.002699
 -0.007792
 -0.012886
 -0.007792
 -0.002699
 -0.010339
 -0.012886
 -0.007792
 -0.002699
 -0.005246
 -0.012886
 -0.005246
 -0.000152
 -0.007792
 -0.012886
 -0.007792
 -0.002699
 -0.010339
 -0.012886
 -0.005246
 -0.005246
 -0.007792
 -0.012886
 -0.005246
 -0.002699
 -0.005246
 -0.010339
 -0.010339
 -0.000152
 -0.007792
 -0.012886
 -0.010339
 -0.005246
 -0.002699
 -0.012886
 -0.005246
 -0.002699
 -0.012886
 -0.007792
 -0.005246
 -0.010339
 -0.012886
 -0.007792
 -0.002699
 -0.012886
 -0.007792
 -0.005246
 -0.005246
 -0.012886
  0.007488
  0.002395
  0.007488
  0.017675
  0.027862
  0.020221
  0.022768
  0.038048
  0.030408
  0.027862
  0.032955
  0.045688
  0.040595
  0.038048
  0.043142
  0.045688
  0.043142
  0.050782
  0.055875
  0.050782
  0.048235
  0.045688
  0.048235
  0.040595
  0.038048
  0.043142
  0.048235
  0.043142
  0.038048
  0.040595
  0.040595
  0.038048
  0.043142
  0.045688
  0.040595
  0.027862
  0.030408
  0.038048
  0.025315
  0.030408
  0.040595
  0.022768
  0.020221
  0.027862
  0.025315
  0.010035
  0.007488
  0.010035
  0.015128
  0.007488
  0.002395
  0.004941
  0.002395
 -0.002699
  0.002395
  0.002395
 -0.012886
 -0.010339
 -0.002699
 -0.005246
 -0.012886
 -0.005246
 -0.005246
 -0.005246
 -0.012886
 -0.000152
 -0.005246
 -0.015432
 -0.015432
 -0.002699
 -0.010339
 -0.012886
 -0.005246
 -0.005246
 -0.007792
 -0.012886
 -0.007792
 -0.002699
 -0.010339
 -0.005246
 -0.010339
 -0.007792
 -0.000152
 -0.010339
 -0.012886
 -0.010339
 -0.010339
 -0.010339
 -0.015432
 -0.007792
 -0.002699
 -0.005246
 -0.012886
 -0.007792
 -0.002699
 -0.007792
 -0.010339
 -0.012886
 -0.002699
 -0.002699
 -0.007792
 -0.012886
 -0.010339
 -0.007792
 -0.015432
 -0.045993
 -0.043446
 -0.053633
 -0.061273
 -0.074006
 -0.074006
 -0.061273
 -0.053633
 -0.017979
 -0.020526
  0.096622
  0.104262
  0.305452
  0.300358
  0.386946
  0.392039
   0.47608
   0.46844
  0.618695
  0.623789
   0.70783
   0.70019
   0.76895
  0.784231
  0.852991
  0.870818
  0.883552
  0.934486
  0.952313
  0.962499
  0.957406
  0.954859
  0.954859
  0.944673
  0.939579
  0.868272
  0.870818
  0.809698
  0.804604
   0.76131
  0.763857
  0.679816
  0.674723
  0.519374
  0.524467
  0.392039
  0.384399
  0.267251
  0.269798
   0.19085
  0.188303
  0.099169
  0.106809
  -0.07146
   -0.0791
 -0.198794
 -0.193701
 -0.287929
 -0.287929
 -0.259915
 -0.265009
 -0.201341
 -0.201341
  -0.12494
 -0.130034
 -0.135127
 -0.089287
 -0.038353
 -0.045993
 -0.048539
 -0.045993
 -0.035806
 -0.043446
 -0.053633
 -0.043446
 -0.038353
 -0.043446
 -0.048539
 -0.043446
 -0.038353
 -0.043446
 -0.056179
 -0.045993
 -0.045993
 -0.053633
 -0.051086
 -0.043446
 -0.040899
 -0.043446
 -0.051086
 -0.048539
 -0.040899
 -0.045993
 -0.051086
 -0.043446
 -0.035806
 -0.045993
 -0.053633
 -0.048539
 -0.038353
 -0.043446
 -0.051086
 -0.045993
 -0.038353
 -0.033259
 -0.040899
 -0.033259
 -0.030712
 -0.030712
 -0.030712
 -0.028166
 -0.017979
 -0.020526
 -0.030712
 -0.023072
 -0.023072
 -0.023072
 -0.017979
 -0.012886
 -0.007792
 -0.023072
 -0.017979
 -0.012886
 -0.012886
 -0.015432
 -0.023072
 -0.015432
 -0.010339
 -0.012886
 -0.010339
 -0.002699
 -0.010339
 -0.012886
 -0.005246
 -0.007792
 -0.000152
 -0.005246
  0.004941
 -0.000152
  0.012581
  0.015128
  0.038048
  0.035502
  0.025315
  0.027862
  0.045688
  0.048235
  0.058422
  0.058422
  0.071155
  0.073702
  0.078795
  0.088982
  0.096622
  0.094076
  0.096622
  0.116996
  0.127183
  0.129729
  0.122089
  0.129729
  0.134823
  0.139916
  0.132276
  0.147556
  0.150103
  0.150103
   0.14501
  0.139916
  0.150103
  0.155196
  0.142463
  0.150103
  0.157743
  0.165383
  0.157743
  0.129729
  0.129729
   0.13737
   0.14501
   0.13737
  0.134823
  0.142463
  0.142463
  0.129729
  0.119543
  0.132276
  0.134823
  0.096622
  0.099169
  0.099169
  0.101716
  0.091529
  0.083889
  0.088982
  0.088982
  0.078795
  0.068609
  0.071155
  0.066062
  0.060969
  0.048235
  0.048235
  0.058422
  0.050782
  0.035502
  0.038048
  0.030408
  0.030408
  0.025315
  0.030408
  0.027862
  0.038048
  0.032955
  0.027862
  0.022768
  0.025315
  0.025315
  0.020221
  0.022768
  0.027862
  0.020221
  0.020221
  0.012581
  0.015128
  0.010035
  0.007488
  0.010035
  0.015128
  0.004941
  0.007488
  0.010035
  0.012581
  0.004941
 -0.002699
  0.002395
  0.012581
  0.002395
 -0.002699
  0.004941
  0.002395
 -0.005246
 -0.010339
 -0.007792
 -0.002699
 -0.005246
 -0.012886
 -0.007792
 -0.002699
 -0.007792
 -0.012886
 -0.002699
 -0.002699
 -0.005246
 -0.012886
 -0.007792
 -0.002699
 -0.005246
 -0.012886
 -0.010339
 -0.002699
 -0.010339
 -0.015432
 -0.010339
 -0.002699
 -0.005246
 -0.007792
 -0.007792
 -0.005246
 -0.002699
 -0.010339
 -0.012886
 -0.007792
 -0.005246
 -0.007792
 -0.015432
 -0.007792
 -0.002699
 -0.005246
 -0.012886
 -0.012886
 -0.002699
 -0.005246
 -0.015432
 -0.007792
 -0.005246
 -0.005246
 -0.015432
 -0.007792
 -0.002699
 -0.007792
 -0.012886
 -0.005246
 -0.002699
 -0.005246
 -0.002699
  0.010035
  0.010035
  0.010035
  0.025315
  0.030408
  0.022768
  0.015128
  0.032955
  0.038048
  0.038048
  0.030408
  0.035502
  0.043142
  0.048235
  0.043142
  0.038048
  0.048235
  0.050782
  0.053329
  0.053329
  0.040595
  0.035502
  0.038048
  0.045688
  0.043142
  0.040595
  0.045688
  0.043142
  0.043142
  0.038048
  0.035502
  0.040595
  0.048235
  0.035502
  0.025315
  0.032955
  0.030408
  0.035502
  0.032955
  0.027862
  0.022768
  0.027862
  0.027862
  0.025315
  0.007488
  0.010035
  0.017675
  0.017675
  0.010035
  0.007488
  0.002395
  0.012581
  0.002395
  0.002395
 -0.005246
  0.002395
 -0.002699
 -0.007792
 -0.012886
 -0.005246
 -0.002699
 -0.007792
 -0.012886
 -0.007792
 -0.002699
 -0.007792
 -0.015432
 -0.012886
 -0.007792
 -0.002699
 -0.010339
 -0.007792
 -0.012886
 -0.010339
 -0.005246
 -0.005246
 -0.012886
 -0.012886
 -0.005246
 -0.002699
 -0.002699
 -0.010339
 -0.012886
 -0.010339
 -0.007792
 -0.002699
 -0.012886
 -0.012886
 -0.012886
 -0.007792
 -0.002699
 -0.005246
 -0.010339
 -0.010339
 -0.007792
 -0.002699
 -0.005246
 -0.012886
 -0.007792
 -0.002699
  0.002395
 -0.010339
 -0.012886
 -0.007792
 -0.023072
 -0.040899
 -0.053633
 -0.058726
 -0.068913
 -0.068913
 -0.053633
 -0.056179
 -0.025619
 -0.017979
  0.101716
  0.099169
  0.292718
  0.297811
  0.392039
  0.389493
   0.46844
  0.473534
  0.621242
  0.616149
  0.702736
   0.70019
   0.76895
   0.76895
  0.860632
  0.858085
  0.881005
  0.886098
  0.959953
  0.954859
  0.962499
  0.959953
  0.959953
  0.952313
  0.937032
  0.944673
  0.870818
  0.863178
  0.802057
  0.809698
  0.763857
  0.728203
  0.679816
  0.588135
  0.524467
   0.41496
  0.386946
  0.295265
  0.269798
   0.19085
  0.185757
  0.109356
  0.099169
  -0.07146
 -0.074006
 -0.191154
 -0.198794
 -0.287929
 -0.287929
 -0.259915
 -0.267555
 -0.208981
 -0.201341
 -0.127487
  -0.13258
 -0.135127
  -0.13258
 -0.040899
 -0.043446
 -0.048539
 -0.045993
 -0.038353
 -0.051086
 -0.048539
 -0.043446
 -0.040899
 -0.045993
 -0.053633
 -0.043446
 -0.038353
 -0.045993
 -0.053633
 -0.038353
 -0.045993
 -0.051086
 -0.045993
 -0.038353
 -0.043446
 -0.043446
 -0.040899
 -0.038353
 -0.053633
 -0.048539
 -0.035806
 -0.048539
 -0.043446
 -0.040899
 -0.045993
 -0.048539
 -0.038353
 -0.043446
 -0.051086
 -0.043446
 -0.043446
 -0.043446
 -0.033259
 -0.030712
 -0.035806
 -0.025619
 -0.017979
 -0.020526
 -0.030712
 -0.028166
 -0.023072
 -0.033259
 -0.025619
 -0.020526
 -0.033259
 -0.023072
 -0.017979
 -0.015432
 -0.020526
 -0.015432
 -0.012886
 -0.015432
 -0.023072
 -0.015432
 -0.010339
 -0.015432
 -0.015432
 -0.005246
 -0.002699
 -0.010339
 -0.010339
 -0.007792
 -0.002699
 -0.010339
  0.002395
  0.002395
  0.020221
  0.020221
  0.027862
  0.030408
  0.038048
  0.035502
  0.035502
  0.045688
  0.066062
  0.063515
  0.066062
  0.068609
  0.088982
  0.083889
  0.086436
  0.088982
  0.104262
  0.099169
  0.116996
  0.119543
  0.129729
  0.127183
  0.127183
  0.132276
  0.139916
   0.13737
   0.14501
  0.147556
   0.15265
  0.147556
  0.142463
  0.147556
   0.15265
  0.155196
   0.16029
   0.16029
  0.157743
  0.132276
  0.139916
  0.142463
  0.139916
  0.129729
  0.139916
  0.142463
  0.139916
  0.127183
  0.129729
  0.134823
  0.127183
  0.096622
  0.101716
  0.109356
  0.096622
  0.086436
  0.091529
  0.096622
  0.088982
  0.076249
  0.078795
  0.076249
  0.071155
  0.053329
  0.060969
  0.055875
  0.050782
  0.045688
  0.050782
  0.045688
  0.043142
  0.032955
  0.038048
  0.027862
  0.025315
  0.025315
  0.030408
  0.032955
  0.025315
  0.017675
  0.022768
  0.027862
  0.020221
  0.020221
  0.022768
  0.025315
  0.015128
  0.012581
  0.012581
  0.007488
  0.012581
  0.012581
  0.015128
  0.010035
  0.007488
  0.012581
  0.004941
  0.007488
  0.002395
 -0.005246
 -0.002699
  0.002395
  0.010035
  0.004941
 -0.012886
 -0.005246
 -0.002699
 -0.007792
 -0.012886
 -0.005246
 -0.002699
 -0.005246
 -0.010339
 -0.007792
 -0.005246
 -0.007792
 -0.015432
 -0.007792
 -0.002699
 -0.007792
 -0.012886
 -0.007792
 -0.002699
 -0.002699
 -0.012886
 -0.005246
 -0.002699
 -0.010339
 -0.012886
 -0.007792
 -0.002699
 -0.005246
 -0.012886
 -0.007792
 -0.000152
 -0.007792
 -0.012886
 -0.010339
 -0.005246
 -0.010339
 -0.010339
 -0.007792
 -0.002699
 -0.010339
 -0.012886
 -0.007792
 -0.002699
 -0.010339
 -0.012886
 -0.005246
 -0.002699
 -0.007792
 -0.012886
 -0.012886
 -0.005246
 -0.010339
 -0.010339
 -0.005246
  0.004941
  0.002395
  0.004941
  0.015128
  0.027862
  0.022768
  0.022768
  0.022768
  0.035502
  0.032955
  0.025315
  0.030408
  0.048235
  0.043142
  0.035502
  0.038048
  0.058422
  0.045688
  0.045688
  0.048235
  0.055875
  0.050782
  0.038048
  0.043142
  0.048235
  0.045688
  0.035502
  0.040595
  0.048235
  0.045688
  0.038048
  0.043142
  0.045688
  0.043142
  0.035502
  0.043142
  0.035502
  0.030408
  0.027862
  0.030408
  0.038048
  0.025315
  0.017675
  0.022768
  0.027862
  0.017675
  0.004941
  0.012581
  0.017675
  0.010035
  0.007488
  0.002395
  0.010035
  0.007488
 -0.002699
  0.002395
  0.007488
 -0.012886
 -0.015432
 -0.007792
 -0.002699
 -0.007792
 -0.012886
 -0.007792
 -0.002699
 -0.005246
 -0.012886
 -0.007792
 -0.000152
 -0.010339
 -0.012886
 -0.007792
 -0.002699
 -0.012886
 -0.010339
 -0.007792
 -0.002699
 -0.005246
 -0.012886
 -0.005246
 -0.005246
 -0.005246
 -0.012886
 -0.007792
 -0.000152
 -0.012886
 -0.007792
 -0.005246
 -0.005246
 -0.012886
 -0.005246
 -0.005246
 -0.007792
 -0.010339
 -0.002699
 -0.010339
 -0.012886
 -0.010339
 -0.002699
 -0.002699
 -0.007792
 -0.007792
 -0.007792
 -0.005246
 -0.012886
 -0.012886
 -0.038353
 -0.043446
 -0.053633
 -0.058726
 -0.074006
 -0.068913
 -0.056179
 -0.056179
 -0.023072
 -0.023072
  0.096622
  0.099169
  0.307998
  0.302905
  0.389493
  0.402226
   0.47608
  0.555028
  0.616149
  0.677269
  0.710376
   0.75367
  0.758764
  0.850445
  0.868272
  0.881005
  0.875912
  0.954859
  0.965046
  0.952313
  0.954859
  0.962499
  0.957406
  0.931939
  0.939579
  0.875912
  0.870818
  0.802057
  0.802057
   0.76895
   0.76131
  0.672176
  0.677269
  0.527014
  0.524467
  0.384399
  0.392039
  0.272344
  0.267251
  0.185757
   0.19085
  0.099169
  0.094076
  -0.06382
 -0.074006
 -0.206435
 -0.206435
 -0.280289
 -0.275195
 -0.272649
 -0.221715
 -0.196248
 -0.145314
 -0.137674
 -0.130034
  -0.12494
 -0.051086
 -0.051086
 -0.043446
 -0.051086
 -0.051086
 -0.051086
 -0.045993
 -0.040899
 -0.045993
 -0.048539
 -0.043446
 -0.038353
 -0.045993
 -0.048539
 -0.043446
 -0.040899
 -0.045993
 -0.048539
 -0.043446
 -0.045993
 -0.043446
 -0.051086
 -0.045993
 -0.038353
 -0.038353
 -0.053633
 -0.045993
 -0.040899
 -0.043446
 -0.051086
 -0.045993
 -0.043446
 -0.043446
 -0.048539
 -0.045993
 -0.035806
 -0.043446
 -0.043446
 -0.033259
 -0.030712
 -0.035806
 -0.025619
 -0.020526
 -0.025619
 -0.030712
 -0.023072
 -0.020526
 -0.025619
 -0.030712
 -0.023072
 -0.017979
 -0.015432
 -0.023072
 -0.012886
 -0.007792
 -0.015432
 -0.020526
 -0.015432
 -0.012886
 -0.023072
 -0.015432
 -0.010339
 -0.012886
 -0.015432
 -0.007792
 -0.005246
 -0.005246
 -0.012886
 -0.007792
 -0.005246
 -0.007792
 -0.002699
  0.002395
  0.017675
  0.010035
  0.022768
  0.030408
  0.038048
  0.038048
  0.040595
  0.066062
  0.060969
  0.063515
  0.071155
  0.088982
  0.083889
  0.083889
  0.094076
  0.104262
  0.099169
  0.116996
  0.119543
   0.13737
  0.129729
  0.127183
  0.132276
   0.14501
   0.13737
  0.142463
  0.147556
   0.15265
  0.150103
   0.14501
   0.14501
  0.150103
  0.150103
   0.15265
  0.157743
   0.16029
  0.162836
  0.134823
  0.129729
  0.139916
  0.150103
  0.142463
  0.139916
  0.132276
  0.134823
  0.132276
  0.127183
  0.122089
  0.106809
  0.106809
  0.099169
  0.099169
  0.083889
  0.088982
  0.094076
  0.091529
  0.073702
  0.078795
  0.073702
  0.071155
  0.055875
  0.060969
  0.053329
  0.048235
  0.048235
  0.050782
  0.048235
  0.048235
  0.025315
  0.032955
  0.030408
  0.035502
  0.030408
  0.032955
  0.035502
  0.032955
  0.017675
  0.022768
  0.027862
  0.025315
  0.017675
  0.027862
  0.022768
  0.017675
  0.012581
  0.017675
  0.015128
  0.012581
  0.015128
  0.010035
  0.007488
  0.012581
  0.012581
 -0.002699
  0.002395
  0.007488
 -0.002699
  0.002395
  0.010035
  0.004941
 -0.005246
 -0.010339
 -0.005246
 -0.010339
 -0.012886
 -0.007792
 -0.000152
 -0.007792
 -0.012886
 -0.005246
 -0.002699
 -0.012886
 -0.010339
 -0.005246
 -0.010339
 -0.012886
 -0.007792
 -0.005246
 -0.012886
 -0.007792
  0.010035
 -0.010339
 -0.012886
 -0.010339
 -0.007792
 -0.012886
 -0.012886
 -0.005246
 -0.002699
 -0.005246
 -0.015432
 -0.007792
 -0.002699
 -0.007792
 -0.012886
 -0.007792
 -0.002699
 -0.005246
 -0.012886
 -0.010339
 -0.007792
 -0.015432
 -0.007792
 -0.002699
 -0.007792
 -0.010339
 -0.005246
 -0.007792
 -0.010339
 -0.012886
 -0.012886
 -0.002699
 -0.012886
 -0.010339
 -0.007792
 -0.002699
  0.002395
 -0.002699
  0.012581
  0.017675
  0.022768
  0.017675
  0.020221
  0.022768
  0.025315
  0.030408
  0.035502
  0.032955
  0.035502
  0.040595
  0.050782
  0.045688
  0.032955
  0.048235
  0.048235
  0.045688
  0.050782
  0.048235
  0.043142
  0.038048
  0.043142
  0.045688
  0.040595
  0.038048
  0.040595
  0.048235
  0.040595
  0.038048
  0.043142
  0.048235
  0.040595
  0.022768
  0.030408
  0.035502
  0.032955
  0.025315
  0.030408
  0.027862
  0.025315
  0.017675
  0.022768
  0.020221
  0.007488
  0.010035
  0.012581
  0.020221
  0.012581
 -0.002699
  0.002395
  0.007488
  0.004941
 -0.005246
 -0.005246
 -0.005246
 -0.007792
 -0.012886
 -0.007792
 -0.002699
 -0.005246
 -0.015432
 -0.007792
 -0.000152
 -0.005246
 -0.010339
 -0.007792
 -0.002699
 -0.007792
 -0.012886
 -0.005246
 -0.002699
 -0.007792
 -0.010339
 -0.007792
 -0.002699
 -0.005246
 -0.012886
 -0.010339
 -0.007792
 -0.015432
 -0.007792
 -0.002699
 -0.007792
 -0.012886
 -0.007792
 -0.002699
 -0.007792
 -0.007792
 -0.007792
 -0.002699
 -0.007792
 -0.007792
 -0.000152
 -0.010339
 -0.012886
 -0.007792
 -0.002699
 -0.005246
 -0.010339
 -0.012886
 -0.002699
 -0.002699
 -0.043446
 -0.053633
 -0.053633
 -0.053633
   -0.0791
 -0.076553
 -0.048539
 -0.053633
 -0.030712
 -0.023072
  0.106809
  0.099169
  0.297811
  0.297811
  0.394586
  0.389493
  0.470987
   0.47608
  0.623789
  0.618695
   0.70019
  0.705283
   0.76895
  0.763857
  0.855538
  0.860632
  0.886098
  0.881005
  0.952313
  0.957406
  0.954859
  0.954859
  0.954859
  0.949766
  0.942126
  0.898832
  0.868272
  0.819884
  0.802057
  0.776591
  0.763857
  0.679816
  0.679816
  0.529561
  0.529561
  0.394586
  0.384399
  0.274891
  0.274891
   0.19085
  0.185757
  0.096622
  0.099169
  -0.07146
   -0.0791
 -0.198794
 -0.196248
 -0.287929
 -0.293022
 -0.262462
 -0.259915
 -0.196248
 -0.198794
  -0.12494
  -0.13258
 -0.135127
 -0.130034
 -0.038353
 -0.043446
 -0.051086
 -0.043446
 -0.038353
 -0.043446
 -0.048539
 -0.043446
 -0.038353
 -0.043446
 -0.051086
 -0.043446
 -0.040899
 -0.038353
 -0.051086
 -0.043446
 -0.043446
 -0.043446
 -0.048539
 -0.045993
 -0.038353
 -0.045993
 -0.051086
 -0.048539
 -0.040899
 -0.045993
 -0.048539
 -0.043446
 -0.040899
 -0.035806
 -0.040899
 -0.051086
 -0.048539
 -0.040899
 -0.040899
 -0.043446
 -0.045993
 -0.040899
 -0.033259
 -0.033259
 -0.030712
 -0.023072
 -0.023072
 -0.030712
 -0.025619
 -0.025619
 -0.023072
 -0.025619
 -0.030712
 -0.030712
 -0.023072
 -0.007792
 -0.015432
 -0.023072
 -0.017979
 -0.015432
 -0.010339
 -0.015432
 -0.017979
 -0.020526
 -0.015432
 -0.007792
 -0.002699
 -0.007792
 -0.010339
 -0.007792
 -0.002699
 -0.010339
 -0.010339
 -0.007792
  0.007488
  0.002395
  0.010035
  0.010035
  0.035502
  0.030408
  0.027862
  0.032955
  0.045688
  0.043142
  0.058422
  0.058422
  0.068609
  0.076249
  0.081342
  0.076249
  0.086436
  0.094076
  0.099169
  0.094076
  0.116996
  0.132276
  0.129729
  0.124636
  0.124636
   0.13737
  0.142463
  0.139916
  0.150103
  0.139916
  0.147556
   0.15265
   0.14501
   0.14501
  0.142463
   0.16029
  0.165383
  0.157743
   0.15265
   0.13737
  0.139916
   0.14501
  0.139916
  0.132276
   0.13737
   0.14501
   0.14501
  0.129729
  0.124636
  0.127183
  0.139916
  0.104262
  0.101716
  0.088982
  0.101716
  0.091529
  0.094076
  0.091529
  0.091529
  0.076249
  0.081342
  0.076249
  0.068609
  0.058422
  0.053329
  0.050782
  0.058422
  0.058422
  0.045688
  0.038048
  0.032955
  0.027862
  0.035502
  0.030408
  0.027862
  0.030408
  0.038048
  0.032955
  0.017675
  0.020221
  0.027862
  0.020221
  0.025315
  0.022768
  0.027862
  0.025315
  0.007488
  0.012581
  0.015128
  0.015128
  0.007488
  0.012581
  0.022768
  0.010035
  0.007488
  0.012581
  0.007488
  0.002395
 -0.002699
  0.004941
  0.007488
 -0.002699
 -0.002699
 -0.000152
 -0.002699
 -0.010339
 -0.010339
 -0.010339
 -0.002699
 -0.005246
 -0.012886
 -0.010339
 -0.000152
 -0.010339
 -0.012886
 -0.007792
 -0.002699
 -0.010339
 -0.007792
 -0.012886
 -0.010339
 -0.000152
 -0.010339
 -0.012886
 -0.007792
 -0.002699
 -0.007792
 -0.015432
 -0.010339
 -0.010339
 -0.012886
 -0.007792
  0.004941
 -0.007792
 -0.012886
 -0.010339
 -0.002699
 -0.000152
 -0.005246
 -0.012886
 -0.005246
 -0.000152
 -0.002699
 -0.010339
 -0.010339
 -0.002699
 -0.007792
 -0.012886
 -0.012886
 -0.010339
 -0.002699
 -0.010339
 -0.007792
 -0.007792
 -0.002699
 -0.010339
 -0.007792
 -0.002699
  0.004941
 -0.002699
  0.012581
  0.017675
  0.020221
  0.017675
  0.017675
  0.020221
  0.038048
  0.032955
  0.027862
  0.032955
  0.048235
  0.045688
  0.043142
  0.040595
  0.043142
  0.043142
  0.055875
  0.050782
  0.045688
  0.045688
  0.040595
  0.048235
  0.050782
  0.040595
  0.040595
  0.038048
  0.043142
  0.048235
  0.045688
  0.043142
  0.035502
  0.040595
  0.043142
  0.043142
  0.030408
  0.025315
  0.027862
  0.035502
  0.030408
  0.020221
  0.022768
  0.022768
  0.022768
  0.004941
  0.007488
  0.007488
  0.020221
  0.010035
  0.007488
  0.004941
  0.007488
  0.002395
 -0.005246
  0.002395
  0.007488
 -0.007792
 -0.007792
 -0.002699
 -0.005246
 -0.012886
 -0.007792
  0.002395
 -0.007792
 -0.012886
 -0.002699
 -0.005246
 -0.012886
 -0.010339
 -0.002699
 -0.005246
 -0.012886
 -0.005246
 -0.000152
 -0.012886
 -0.012886
 -0.007792
 -0.002699
 -0.010339
 -0.012886
 -0.012886
 -0.002699
 -0.007792
 -0.012886
 -0.005246
 -0.002699
 -0.005246
 -0.012886
 -0.007792
 -0.002699
 -0.012886
 -0.007792
 -0.005246
 -0.010339
 -0.012886
 -0.007792
 -0.002699
 -0.007792
 -0.012886
 -0.007792
 -0.002699
 -0.007792
 -0.020526
 -0.007792
 -0.002699
 -0.043446
 -0.048539
 -0.051086
 -0.053633
 -0.076553
 -0.074006
 -0.045993
 -0.048539
 -0.033259
  0.043142
  0.106809
  0.246877
  0.292718
  0.374212
  0.394586
  0.465893
  0.470987
  0.608508
  0.621242
  0.702736
   0.70019
   0.76131
   0.76895
  0.860632
  0.855538
  0.881005
  0.886098
  0.954859
  0.952313
  0.957406
  0.962499
  0.957406
  0.952313
  0.937032
  0.944673
  0.870818
  0.863178
  0.802057
  0.809698
  0.763857
  0.758764
  0.674723
  0.679816
  0.521921
  0.519374
  0.389493
  0.392039
  0.272344
  0.264704
   0.19085
  0.150103
  0.094076
 -0.012886
 -0.074006
 -0.175874
 -0.203888
 -0.277742
 -0.280289
 -0.270102
 -0.272649
 -0.198794
 -0.191154
  -0.13258
 -0.135127
 -0.130034
 -0.130034
 -0.043446
 -0.038353
 -0.043446
 -0.045993
 -0.051086
 -0.048539
 -0.038353
 -0.045993
 -0.051086
 -0.045993
 -0.038353
 -0.048539
 -0.051086
 -0.043446
 -0.043446
 -0.043446
 -0.051086
 -0.045993
 -0.040899
 -0.045993
 -0.051086
 -0.051086
 -0.038353
 -0.045993
 -0.051086
 -0.045993
 -0.038353
 -0.045993
 -0.051086
 -0.043446
 -0.038353
 -0.038353
 -0.048539
 -0.040899
 -0.038353
 -0.043446
 -0.051086
 -0.035806
 -0.033259
 -0.035806
 -0.040899
 -0.028166
 -0.020526
 -0.020526
 -0.025619
 -0.033259
 -0.025619
 -0.023072
 -0.023072
 -0.020526
 -0.030712
 -0.012886
 -0.010339
 -0.020526
 -0.015432
 -0.020526
 -0.017979
 -0.012886
 -0.012886
 -0.015432
 -0.020526
 -0.012886
 -0.015432
 -0.005246
 -0.007792
 -0.012886
 -0.007792
 -0.007792
 -0.002699
 -0.005246
 -0.005246
  0.004941
  0.017675
  0.015128
  0.027862
  0.032955
  0.032955
  0.035502
  0.043142
  0.043142
  0.063515
  0.066062
  0.068609
  0.071155
  0.076249
  0.083889
  0.096622
  0.091529
  0.096622
  0.099169
  0.119543
  0.127183
  0.129729
  0.124636
  0.129729
  0.132276
  0.139916
  0.129729
  0.147556
   0.15265
  0.150103
  0.147556
  0.142463
  0.150103
  0.150103
  0.142463
  0.157743
   0.16793
  0.162836
  0.150103
  0.132276
  0.134823
  0.139916
   0.14501
  0.139916
  0.132276
  0.132276
  0.129729
  0.132276
  0.129729
  0.124636
  0.101716
  0.109356
  0.104262
  0.099169
  0.083889
  0.088982
  0.096622
  0.091529
  0.076249
  0.078795
  0.078795
  0.068609
  0.058422
  0.060969
  0.055875
  0.048235
  0.045688
  0.050782
  0.045688
  0.045688
  0.027862
  0.032955
  0.035502
  0.030408
  0.027862
  0.032955
  0.035502
  0.030408
  0.017675
  0.017675
  0.022768
  0.027862
  0.020221
  0.017675
  0.022768
  0.022768
  0.015128
  0.010035
  0.012581
  0.017675
  0.010035
  0.015128
  0.010035
  0.010035
  0.017675
 -0.000152
 -0.005246
 -0.000152
  0.010035
 -0.000152
 -0.005246
  0.002395
  0.007488
 -0.007792
 -0.015432
 -0.007792
 -0.002699
 -0.007792
 -0.012886
 -0.007792
 -0.002699
 -0.002699
 -0.012886
 -0.005246
 -0.005246
 -0.007792
 -0.015432
 -0.005246
 -0.000152
 -0.005246
 -0.015432
 -0.012886
 -0.007792
 -0.002699
 -0.007792
 -0.012886
 -0.005246
 -0.002699
 -0.005246
 -0.012886
 -0.005246
 -0.002699
 -0.015432
 -0.007792
 -0.010339
 -0.002699
 -0.005246
 -0.012886
 -0.010339
 -0.002699
 -0.010339
 -0.010339
 -0.005246
 -0.002699
 -0.005246
 -0.012886
 -0.010339
 -0.005246
 -0.007792
 -0.012886
 -0.010339
 -0.000152
 -0.010339
 -0.012886
 -0.005246
 -0.005246
  0.004941
 -0.002699
  0.015128
  0.017675
  0.017675
  0.025315
  0.030408
  0.027862
  0.025315
  0.032955
  0.035502
  0.038048
  0.038048
  0.040595
  0.045688
  0.043142
  0.035502
  0.055875
  0.050782
  0.048235
  0.050782
  0.045688
  0.043142
  0.035502
  0.043142
  0.048235
  0.043142
  0.035502
  0.038048
  0.048235
  0.043142
  0.038048
  0.048235
  0.043142
  0.038048
  0.030408
  0.038048
  0.032955
  0.025315
  0.032955
  0.040595
  0.025315
  0.017675
  0.017675
  0.030408
  0.012581
  0.012581
  0.007488
  0.012581
  0.020221
  0.007488
 -0.002699
 -0.000152
  0.007488
  0.002395
 -0.000152
 -0.005246
 -0.002699
 -0.010339
 -0.012886
 -0.010339
 -0.010339
 -0.002699
 -0.007792
 -0.015432
 -0.012886
 -0.007792
 -0.002699
 -0.007792
 -0.005246
 -0.012886
 -0.005246
 -0.005246
 -0.002699
 -0.007792
 -0.010339
 -0.012886
 -0.007792
 -0.002699
 -0.002699
 -0.007792
 -0.012886
 -0.015432
 -0.005246
 -0.000152
 -0.005246
 -0.005246
 -0.012886
 -0.007792
 -0.002699
 -0.005246
 -0.007792
 -0.015432
 -0.007792
 -0.002699
 -0.010339
 -0.012886
 -0.007792
 -0.007792
 -0.005246
 -0.007792
 -0.005246
 -0.012886
 -0.010339
 -0.012886
 -0.038353
 -0.043446
 -0.053633
 -0.058726
  -0.07146
 -0.074006
 -0.045993
 -0.053633
 -0.035806
 -0.030712
  0.096622
  0.104262
  0.305452
  0.300358
  0.384399
  0.384399
  0.473534
  0.481174
  0.618695
  0.621242
   0.70019
  0.702736
   0.76895
   0.76895
  0.860632
  0.852991
  0.873365
  0.903925
  0.965046
  0.965046
  0.954859
  0.952313
  0.954859
  0.939579
  0.942126
  0.878458
  0.868272
  0.804604
  0.807151
  0.771497
   0.76131
  0.674723
  0.677269
  0.532108
  0.524467
  0.381852
  0.386946
  0.272344
  0.274891
  0.188303
  0.180663
  0.099169
  0.106809
 -0.068913
 -0.074006
 -0.201341
 -0.191154
 -0.285382
 -0.293022
 -0.262462
 -0.262462
 -0.198794
 -0.203888
 -0.135127
 -0.130034
  -0.12494
  -0.13258
 -0.051086
 -0.053633
 -0.043446
 -0.038353
 -0.043446
 -0.051086
 -0.043446
 -0.038353
 -0.043446
 -0.048539
 -0.045993
 -0.035806
 -0.040899
 -0.043446
 -0.051086
 -0.043446
 -0.035806
 -0.043446
 -0.051086
 -0.048539
 -0.045993
 -0.035806
 -0.045993
 -0.045993
 -0.051086
 -0.040899
 -0.038353
 -0.040899
 -0.045993
 -0.048539
 -0.045993
 -0.038353
 -0.038353
 -0.038353
 -0.051086
 -0.045993
 -0.038353
 -0.035806
 -0.040899
 -0.035806
 -0.028166
 -0.025619
 -0.033259
 -0.030712
 -0.020526
 -0.023072
 -0.028166
 -0.028166
 -0.020526
 -0.020526
 -0.015432
 -0.020526
 -0.015432
 -0.012886
 -0.012886
 -0.012886
 -0.020526
 -0.015432
 -0.012886
 -0.012886
 -0.017979
 -0.015432
 -0.005246
 -0.002699
 -0.007792
 -0.012886
 -0.012886
 -0.000152
 -0.007792
 -0.005246
 -0.005246
  0.002395
  0.015128
  0.015128
  0.025315
  0.032955
  0.035502
  0.035502
  0.038048
  0.035502
  0.060969
  0.060969
  0.076249
  0.068609
  0.076249
  0.083889
  0.096622
  0.096622
  0.094076
  0.114449
  0.127183
  0.129729
  0.122089
  0.129729
  0.132276
  0.139916
  0.132276
  0.147556
  0.155196
  0.147556
   0.14501
   0.15265
  0.150103
   0.14501
   0.14501
  0.155196
   0.16029
  0.157743
   0.15265
  0.139916
  0.139916
   0.14501
  0.142463
  0.129729
  0.139916
   0.14501
  0.142463
  0.129729
  0.124636
  0.132276
  0.134823
  0.106809
  0.099169
  0.096622
  0.099169
  0.096622
  0.091529
  0.083889
  0.086436
  0.088982
  0.076249
  0.068609
  0.063515
  0.066062
  0.053329
  0.045688
  0.045688
  0.048235
  0.045688
  0.043142
  0.025315
  0.030408
  0.032955
  0.038048
  0.027862
  0.027862
  0.032955
  0.035502
  0.022768
  0.017675
  0.025315
  0.025315
  0.022768
  0.015128
  0.022768
  0.027862
  0.015128
  0.007488
  0.012581
  0.017675
  0.015128
  0.004941
  0.012581
  0.017675
  0.012581
  0.007488
 -0.000152
  0.007488
  0.002395
 -0.005246
  0.002395
  0.007488
  0.007488
 -0.010339
 -0.002699
 -0.010339
 -0.012886
 -0.005246
 -0.002699
 -0.005246
 -0.010339
 -0.010339
 -0.005246
 -0.010339
 -0.012886
 -0.007792
 -0.005246
 -0.007792
 -0.012886
 -0.007792
 -0.002699
 -0.010339
 -0.010339
 -0.007792
 -0.002699
 -0.005246
 -0.012886
 -0.007792
 -0.002699
 -0.007792
 -0.012886
 -0.007792
 -0.007792
 -0.007792
 -0.010339
 -0.010339
 -0.002699
 -0.007792
 -0.010339
 -0.005246
 -0.002699
 -0.007792
 -0.012886
 -0.005246
 -0.002699
 -0.007792
 -0.012886
 -0.007792
 -0.007792
 -0.000152
 -0.010339
 -0.010339
 -0.015432
 -0.007792
 -0.000152
 -0.002699
 -0.007792
 -0.012886
  0.004941
  0.002395
  0.017675
  0.015128
  0.015128
  0.017675
  0.022768
  0.027862
  0.030408
  0.030408
  0.027862
  0.030408
  0.038048
  0.045688
  0.038048
  0.035502
  0.040595
  0.045688
  0.058422
  0.048235
  0.045688
  0.050782
  0.045688
  0.043142
  0.040595
  0.035502
  0.043142
  0.048235
  0.040595
  0.035502
  0.035502
  0.038048
  0.048235
  0.043142
  0.038048
  0.032955
  0.035502
  0.030408
  0.025315
  0.027862
  0.032955
  0.022768
  0.017675
  0.022768
  0.027862
  0.017675
  0.012581
  0.007488
  0.010035
  0.015128
  0.004941
  0.002395
  0.007488
  0.007488
  0.004941
 -0.002699
  0.002395
 -0.002699
 -0.010339
 -0.015432
 -0.010339
 -0.002699
 -0.007792
 -0.015432
 -0.010339
 -0.002699
 -0.007792
 -0.012886
 -0.007792
 -0.002699
 -0.005246
 -0.012886
 -0.010339
 -0.002699
 -0.007792
 -0.012886
 -0.005246
 -0.012886
 -0.000152
 -0.012886
 -0.005246
 -0.000152
 -0.007792
 -0.012886
 -0.010339
 -0.007792
 -0.002699
 -0.010339
 -0.012886
 -0.007792
 -0.000152
 -0.005246
 -0.007792
 -0.002699
 -0.007792
 -0.012886
 -0.007792
 -0.002699
 -0.007792
 -0.012886
 -0.007792
 -0.002699
 -0.005246
 -0.012886
 -0.007792
 -0.000152
 -0.040899
 -0.053633
 -0.051086
  -0.06382
 -0.076553
 -0.058726
 -0.045993
 -0.025619
 -0.028166
  0.083889
  0.096622
  0.292718
  0.297811
  0.376759
  0.386946
  0.481174
   0.47608
  0.611055
  0.618695
  0.710376
  0.705283
  0.758764
  0.763857
  0.868272
  0.860632
  0.875912
  0.881005
  0.962499
  0.954859
  0.952313
  0.954859
  0.965046
  0.954859
  0.934486
  0.944673
  0.870818
  0.868272
  0.802057
  0.802057
   0.76895
  0.763857
  0.672176
  0.674723
  0.529561
  0.465893
  0.384399
  0.313092
  0.279985
  0.201037
   0.18321
  0.109356
  0.106809
 -0.061273
   -0.0791
 -0.193701
 -0.193701
 -0.282836
 -0.293022
 -0.267555
 -0.262462
 -0.198794
 -0.203888
  -0.13258
  -0.12494
  -0.13258
 -0.137674
 -0.045993
 -0.043446
 -0.043446
 -0.051086
 -0.045993
 -0.038353
 -0.043446
 -0.051086
 -0.045993
 -0.040899
 -0.038353
 -0.038353
 -0.053633
 -0.043446
 -0.035806
 -0.043446
 -0.051086
 -0.051086
 -0.043446
 -0.040899
 -0.045993
 -0.043446
 -0.048539
 -0.040899
 -0.038353
 -0.045993
 -0.048539
 -0.045993
 -0.038353
 -0.045993
 -0.051086
 -0.048539
 -0.038353
 -0.043446
 -0.051086
 -0.051086
 -0.043446
 -0.030712
 -0.035806
 -0.043446
 -0.038353
 -0.028166
 -0.015432
 -0.025619
 -0.030712
 -0.030712
 -0.025619
 -0.017979
 -0.025619
 -0.030712
 -0.028166
 -0.007792
 -0.010339
 -0.012886
 -0.020526
 -0.020526
 -0.015432
 -0.010339
 -0.015432
 -0.020526
 -0.015432
 -0.015432
 -0.010339
 -0.005246
 -0.010339
 -0.007792
 -0.005246
 -0.007792
 -0.012886
 -0.007792
  0.007488
  0.004941
  0.010035
  0.007488
  0.030408
  0.032955
  0.035502
  0.030408
  0.035502
  0.038048
  0.060969
  0.068609
  0.076249
  0.063515
  0.076249
  0.076249
  0.088982
  0.096622
  0.104262
  0.101716
  0.116996
  0.116996
  0.129729
   0.13737
  0.134823
  0.127183
  0.134823
  0.139916
  0.157743
  0.147556
  0.147556
   0.14501
  0.150103
   0.15265
  0.147556
   0.15265
   0.15265
  0.157743
  0.162836
  0.139916
  0.134823
  0.132276
   0.13737
  0.147556
  0.139916
  0.134823
  0.139916
  0.134823
  0.129729
  0.124636
  0.127183
  0.109356
  0.099169
  0.101716
  0.096622
  0.088982
  0.091529
  0.083889
  0.091529
  0.086436
  0.086436
  0.071155
  0.066062
  0.060969
  0.066062
  0.055875
  0.045688
  0.053329
  0.058422
  0.045688
  0.038048
  0.032955
  0.038048
  0.030408
  0.027862
  0.030408
  0.038048
  0.030408
  0.022768
  0.020221
  0.027862
  0.022768
  0.015128
  0.025315
  0.027862
  0.022768
  0.007488
  0.012581
  0.017675
  0.010035
  0.015128
  0.004941
  0.015128
  0.017675
  0.010035
  0.010035
  0.004941
  0.007488
  0.004941
  0.002395
  0.007488
  0.007488
  0.007488
 -0.005246
 -0.007792
 -0.005246
 -0.005246
 -0.005246
 -0.015432
 -0.007792
 -0.002699
 -0.005246
 -0.012886
 -0.007792
 -0.002699
 -0.007792
 -0.012886
 -0.010339
  0.004941
 -0.007792
 -0.012886
 -0.007792
 -0.005246
 -0.005246
 -0.012886
 -0.005246
 -0.002699
 -0.005246
 -0.012886
 -0.010339
 -0.005246
 -0.010339
 -0.012886
 -0.007792
 -0.005246
 -0.007792
 -0.012886
 -0.010339
 -0.002699
 -0.007792
 -0.015432
 -0.005246
 -0.005246
 -0.010339
 -0.010339
 -0.007792
 -0.005246
 -0.007792
 -0.005246
 -0.002699
 -0.005246
 -0.007792
 -0.005246
 -0.012886
 -0.002699
 -0.007792
 -0.010339
 -0.005246
  0.007488
  0.002395
  0.004941
  0.012581
  0.027862
  0.025315
  0.017675
  0.022768
  0.032955
  0.035502
  0.035502
  0.022768
  0.043142
  0.045688
  0.040595
  0.035502
  0.043142
  0.048235
  0.050782
  0.048235
  0.045688
  0.050782
  0.048235
  0.043142
  0.040595
  0.043142
  0.045688
  0.043142
  0.035502
  0.043142
  0.045688
  0.040595
  0.035502
  0.038048
  0.043142
  0.040595
  0.027862
  0.032955
  0.040595
  0.030408
  0.027862
  0.030408
  0.030408
  0.017675
  0.017675
  0.015128
  0.017675
  0.017675
  0.012581
  0.007488
  0.007488
  0.010035
  0.002395
  0.002395
 -0.000152
  0.007488
  0.002395
 -0.010339
 -0.007792
 -0.002699
 -0.007792
 -0.012886
 -0.010339
 -0.005246
 -0.012886
 -0.012886
 -0.007792
 -0.002699
 -0.002699
 -0.012886
 -0.007792
 -0.007792
 -0.005246
 -0.005246
 -0.012886
 -0.007792
 -0.002699
 -0.005246
 -0.012886
 -0.007792
 -0.000152
 -0.007792
 -0.012886
 -0.000152
 -0.002699
 -0.010339
 -0.012886
 -0.012886
 -0.002699
 -0.012886
 -0.015432
 -0.010339
 -0.002699
 -0.007792
 -0.012886
 -0.007792
 -0.002699
 -0.005246
 -0.012886
 -0.007792
 -0.002699
 -0.007792
 -0.012886
 -0.007792
 -0.002699
 -0.010339
 -0.045993
 -0.048539
 -0.053633
 -0.056179
 -0.068913
   -0.0791
 -0.053633
 -0.045993
 -0.017979
 -0.025619
  0.099169
  0.099169
  0.310545
  0.302905
  0.386946
  0.384399
   0.47608
  0.478627
  0.626335
  0.646709
   0.70019
  0.740937
   0.76895
  0.845351
  0.860632
  0.873365
  0.878458
  0.954859
  0.957406
  0.949766
  0.952313
  0.959953
  0.962499
  0.944673
  0.937032
  0.870818
  0.863178
  0.802057
  0.807151
   0.76131
  0.763857
  0.672176
  0.679816
  0.529561
  0.521921
  0.384399
  0.389493
  0.277438
  0.272344
  0.188303
  0.180663
  0.101716
  0.106809
 -0.074006
 -0.076553
 -0.196248
 -0.206435
 -0.280289
 -0.282836
 -0.270102
 -0.252275
 -0.196248
 -0.163141
 -0.135127
 -0.135127
  -0.13258
 -0.056179
 -0.043446
 -0.043446
 -0.043446
 -0.035806
 -0.035806
 -0.045993
 -0.048539
 -0.048539
 -0.038353
 -0.038353
 -0.045993
 -0.053633
 -0.045993
 -0.038353
 -0.045993
 -0.043446
 -0.051086
 -0.043446
 -0.038353
 -0.045993
 -0.053633
 -0.045993
 -0.040899
 -0.038353
 -0.045993
 -0.048539
 -0.043446
 -0.045993
 -0.038353
 -0.045993
 -0.043446
 -0.051086
 -0.045993
 -0.045993
 -0.040899
 -0.040899
 -0.045993
 -0.038353
 -0.038353
 -0.028166
 -0.023072
 -0.028166
 -0.030712
 -0.028166
 -0.023072
 -0.023072
 -0.017979
 -0.025619
 -0.025619
 -0.033259
 -0.017979
 -0.017979
 -0.010339
 -0.015432
 -0.015432
 -0.023072
 -0.015432
 -0.015432
 -0.010339
 -0.012886
 -0.017979
 -0.023072
 -0.010339
 -0.005246
 -0.002699
 -0.010339
 -0.012886
 -0.010339
 -0.000152
 -0.002699
  0.002395
 -0.002699
  0.010035
  0.010035
  0.038048
  0.030408
  0.027862
  0.038048
  0.048235
  0.050782
  0.063515
  0.068609
  0.073702
  0.083889
  0.083889
  0.086436
  0.083889
  0.099169
  0.109356
  0.119543
  0.119543
  0.127183
  0.129729
  0.134823
  0.129729
  0.132276
  0.129729
  0.150103
   0.15265
  0.150103
  0.142463
  0.147556
  0.150103
   0.15265
  0.147556
   0.15265
  0.162836
   0.16029
  0.157743
  0.132276
   0.13737
  0.142463
  0.139916
  0.129729
  0.139916
  0.139916
  0.139916
  0.127183
  0.124636
  0.129729
  0.116996
  0.106809
  0.094076
  0.099169
  0.096622
  0.091529
  0.083889
  0.088982
  0.081342
  0.088982
  0.071155
  0.068609
  0.063515
  0.063515
  0.055875
  0.045688
  0.048235
  0.055875
  0.040595
  0.035502
  0.032955
  0.035502
  0.032955
  0.022768
  0.030408
  0.038048
  0.030408
  0.027862
  0.022768
  0.030408
  0.017675
  0.017675
  0.027862
  0.022768
  0.017675
  0.022768
  0.017675
  0.012581
  0.007488
  0.017675
  0.015128
  0.007488
  0.015128
  0.022768
  0.012581
 -0.000152
  0.002395
  0.007488
  0.004941
  0.002395
  0.010035
  0.007488
 -0.005246
 -0.010339
 -0.002699
 -0.010339
 -0.012886
 -0.010339
 -0.002699
 -0.010339
 -0.012886
 -0.007792
 -0.002699
 -0.007792
 -0.012886
 -0.002699
 -0.005246
 -0.012886
 -0.007792
 -0.000152
 -0.010339
 -0.012886
 -0.007792
 -0.010339
 -0.005246
 -0.007792
 -0.012886
 -0.007792
 -0.002699
 -0.005246
 -0.012886
 -0.007792
 -0.005246
 -0.007792
 -0.012886
 -0.010339
 -0.010339
 -0.002699
 -0.007792
 -0.012886
  0.002395
 -0.007792
 -0.012886
 -0.007792
 -0.002699
 -0.005246
 -0.007792
 -0.012886
 -0.010339
 -0.002699
 -0.010339
 -0.012886
 -0.012886
 -0.002699
 -0.010339
 -0.010339
 -0.010339
 -0.002699
 -0.000152
  0.002395
  0.010035
  0.022768
  0.022768
  0.017675
  0.022768
  0.027862
  0.032955
  0.032955
  0.032955
  0.038048
  0.040595
  0.038048
  0.043142
  0.045688
  0.045688
  0.040595
  0.053329
  0.058422
  0.053329
  0.035502
  0.048235
  0.043142
  0.040595
  0.038048
  0.040595
  0.045688
  0.043142
  0.038048
  0.043142
  0.045688
  0.040595
  0.035502
  0.043142
  0.035502
  0.030408
  0.032955
  0.027862
  0.027862
  0.038048
  0.030408
  0.015128
  0.025315
  0.025315
  0.012581
  0.007488
  0.010035
  0.017675
  0.010035
  0.007488
  0.002395
  0.007488
  0.004941
 -0.005246
  0.002395
  0.002395
 -0.010339
 -0.010339
 -0.007792
 -0.010339
 -0.010339
 -0.005246
 -0.002699
 -0.007792
 -0.012886
 -0.007792
 -0.002699
 -0.005246
 -0.010339
 -0.007792
 -0.010339
 -0.005246
 -0.012886
 -0.007792
 -0.002699
 -0.005246
 -0.012886
 -0.010339
 -0.005246
 -0.005246
 -0.012886
 -0.005246
 -0.005246
 -0.007792
 -0.012886
 -0.010339
 -0.002699
 -0.012886
 -0.012886
 -0.000152
 -0.007792
 -0.012886
 -0.010339
 -0.002699
 -0.007792
 -0.005246
 -0.002699
 -0.005246
 -0.012886
 -0.010339
 -0.002699
 -0.010339
 -0.012886
 -0.010339
 -0.033259
 -0.051086
 -0.053633
 -0.051086
 -0.074006
 -0.076553
 -0.058726
 -0.048539
 -0.025619
 -0.030712
  0.096622
  0.104262
  0.297811
  0.295265
  0.386946
  0.397133
  0.478627
  0.473534
  0.618695
  0.623789
   0.70783
  0.705283
  0.763857
   0.76895
  0.863178
  0.855538
  0.881005
  0.883552
  0.957406
  0.947219
  0.957406
  0.965046
  0.957406
  0.952313
  0.934486
  0.942126
  0.873365
  0.840258
  0.794417
  0.776591
   0.76895
  0.695096
  0.672176
  0.542294
  0.527014
  0.397133
  0.384399
  0.274891
  0.282531
  0.193397
  0.188303
  0.094076
  0.101716
 -0.066366
 -0.074006
 -0.203888
 -0.201341
 -0.282836
 -0.277742
 -0.267555
 -0.270102
 -0.201341
 -0.193701
  -0.12494
  -0.13258
 -0.135127
 -0.130034
 -0.035806
 -0.043446
 -0.048539
 -0.045993
 -0.038353
 -0.040899
 -0.045993
 -0.051086
 -0.043446
 -0.035806
 -0.033259
 -0.045993
 -0.048539
 -0.043446
 -0.040899
 -0.043446
 -0.045993
 -0.043446
 -0.038353
 -0.040899
 -0.038353
 -0.040899
 -0.038353
 -0.038353
 -0.043446
 -0.048539
 -0.043446
 -0.035806
 -0.045993
 -0.045993
 -0.045993
 -0.038353
 -0.043446
 -0.048539
 -0.045993
 -0.040899
 -0.045993
 -0.040899
 -0.043446
 -0.038353
 -0.025619
 -0.025619
 -0.030712
 -0.023072
 -0.020526
 -0.025619
 -0.033259
 -0.028166
 -0.025619
 -0.017979
 -0.030712
 -0.023072
 -0.015432
 -0.012886
 -0.012886
 -0.020526
 -0.015432
 -0.012886
 -0.015432
 -0.020526
 -0.015432
 -0.017979
 -0.002699
 -0.010339
 -0.012886
 -0.010339
 -0.002699
 -0.010339
 -0.012886
 -0.007792
  0.010035
  0.004941
  0.007488
  0.010035
  0.035502
  0.030408
  0.027862
  0.030408
  0.045688
  0.043142
  0.058422
  0.063515
  0.076249
  0.068609
  0.073702
  0.083889
  0.091529
  0.096622
  0.104262
  0.088982
  0.119543
  0.124636
  0.129729
  0.122089
  0.132276
  0.132276
  0.147556
   0.14501
   0.14501
  0.147556
  0.150103
  0.139916
  0.150103
  0.157743
  0.150103
   0.15265
  0.155196
  0.165383
  0.157743
  0.139916
  0.139916
  0.139916
   0.13737
  0.134823
  0.139916
   0.14501
  0.139916
  0.116996
  0.124636
  0.127183
  0.132276
  0.099169
  0.096622
  0.096622
  0.104262
  0.088982
  0.086436
  0.088982
  0.094076
  0.081342
  0.076249
  0.068609
  0.073702
  0.071155
  0.060969
  0.045688
  0.050782
  0.058422
  0.045688
  0.035502
  0.032955
  0.038048
  0.030408
  0.027862
  0.030408
  0.032955
  0.030408
  0.032955
  0.015128
  0.025315
  0.020221
  0.017675
  0.017675
  0.022768
  0.030408
  0.022768
  0.007488
  0.007488
  0.015128
  0.020221
  0.012581
  0.010035
  0.007488
  0.010035
  0.015128
  0.015128
 -0.002699
  0.002395
  0.010035
  0.004941
  0.004941
  0.004941
  0.007488
  0.002395
 -0.012886
 -0.007792
 -0.002699
 -0.005246
 -0.012886
 -0.012886
 -0.005246
 -0.000152
 -0.007792
 -0.010339
 -0.007792
 -0.005246
 -0.002699
 -0.007792
 -0.012886
 -0.007792
 -0.002699
 -0.010339
 -0.010339
 -0.007792
 -0.005246
 -0.010339
 -0.012886
 -0.007792
 -0.002699
 -0.010339
 -0.007792
 -0.005246
 -0.002699
 -0.005246
 -0.012886
 -0.010339
 -0.010339
 -0.005246
 -0.007792
 -0.010339
 -0.007792
 -0.007792
 -0.010339
 -0.012886
 -0.007792
 -0.002699
 -0.012886
 -0.012886
 -0.005246
 -0.005246
 -0.010339
 -0.007792
 -0.002699
 -0.010339
 -0.012886
 -0.012886
 -0.007792
 -0.002699
 -0.000152
 -0.002699
  0.012581
  0.015128
  0.022768
  0.017675
  0.022768
  0.027862
  0.030408
  0.027862
  0.032955
  0.035502
  0.045688
  0.043142
  0.035502
  0.043142
  0.048235
  0.040595
  0.045688
  0.053329
  0.053329
  0.050782
  0.032955
  0.048235
  0.043142
  0.038048
  0.043142
  0.045688
  0.040595
  0.035502
  0.038048
  0.048235
  0.045688
  0.032955
  0.043142
  0.043142
  0.025315
  0.032955
  0.038048
  0.030408
  0.027862
  0.025315
  0.032955
  0.022768
  0.017675
  0.010035
  0.012581
  0.007488
  0.012581
  0.017675
  0.015128
 -0.005246
 -0.000152
  0.007488
 -0.000152
 -0.000152
 -0.000152
 -0.002699
 -0.005246
 -0.012886
 -0.012886
 -0.010339
 -0.005246
 -0.012886
 -0.012886
 -0.007792
 -0.002699
 -0.007792
 -0.012886
 -0.007792
 -0.002699
 -0.010339
 -0.012886
 -0.012886
 -0.002699
 -0.007792
 -0.012886
 -0.007792
 -0.002699
 -0.007792
 -0.012886
 -0.007792
 -0.002699
 -0.005246
 -0.012886
 -0.007792
 -0.002699
 -0.007792
 -0.012886
 -0.012886
 -0.007792
 -0.007792
 -0.007792
 -0.012886
 -0.007792
 -0.002699
 -0.005246
 -0.007792
 -0.012886
 -0.005246
 -0.002699
 -0.010339
 -0.012886
 -0.012886
 -0.007792
 -0.002699
 -0.043446
 -0.045993
 -0.053633
 -0.053633
 -0.066366
  -0.07146
 -0.058726
 -0.053633
 -0.015432
 -0.017979
  0.104262
   0.16029
  0.297811
  0.358932
  0.394586
  0.455707
  0.470987
  0.598322
  0.623789
  0.697643
   0.70783
  0.758764
   0.76131
  0.860632
  0.863178
  0.878458
  0.878458
  0.957406
  0.962499
  0.957406
  0.952313
  0.952313
  0.959953
  0.942126
  0.939579
  0.865725
  0.870818
  0.802057
  0.809698
   0.76131
  0.758764
  0.679816
  0.682363
  0.524467
  0.519374
  0.389493
  0.389493
  0.272344
  0.267251
  0.188303
   0.19085
  0.101716
  0.068609
  -0.07146
  -0.13258
 -0.208981
 -0.267555
 -0.285382
 -0.259915
 -0.259915
 -0.208981
 -0.201341
 -0.135127
 -0.127487
  -0.12494
 -0.135127
 -0.051086
 -0.051086
 -0.043446
 -0.038353
 -0.045993
 -0.048539
 -0.045993
 -0.038353
 -0.048539
 -0.051086
 -0.043446
 -0.040899
 -0.035806
 -0.045993
 -0.051086
 -0.043446
 -0.038353
 -0.043446
 -0.053633
 -0.040899
 -0.038353
 -0.043446
 -0.051086
 -0.043446
 -0.045993
 -0.035806
 -0.045993
 -0.051086
 -0.051086
 -0.040899
 -0.038353
 -0.045993
 -0.051086
 -0.048539
 -0.043446
 -0.038353
 -0.045993
 -0.043446
 -0.035806
 -0.028166
 -0.033259
 -0.030712
 -0.023072
 -0.025619
 -0.017979
 -0.028166
 -0.028166
 -0.023072
 -0.020526
 -0.025619
 -0.023072
 -0.020526
 -0.015432
 -0.010339
 -0.015432
 -0.015432
 -0.023072
 -0.020526
 -0.010339
 -0.010339
 -0.015432
 -0.020526
 -0.017979
 -0.002699
 -0.010339
 -0.012886
 -0.010339
 -0.002699
 -0.000152
 -0.007792
 -0.007792
  0.002395
  0.015128
  0.010035
  0.022768
  0.025315
  0.030408
  0.038048
  0.040595
  0.035502
  0.060969
  0.068609
  0.073702
  0.066062
  0.078795
  0.086436
  0.091529
  0.086436
  0.101716
  0.109356
  0.116996
  0.116996
  0.129729
   0.13737
  0.129729
  0.124636
  0.134823
  0.142463
  0.150103
   0.14501
  0.150103
  0.150103
  0.150103
  0.142463
  0.150103
   0.15265
   0.16029
  0.150103
  0.155196
  0.162836
  0.134823
   0.13737
   0.14501
   0.13737
  0.134823
   0.13737
  0.139916
  0.129729
  0.127183
  0.132276
  0.132276
  0.101716
  0.096622
  0.101716
  0.106809
  0.091529
  0.083889
  0.086436
  0.099169
  0.078795
  0.076249
  0.071155
  0.073702
  0.060969
  0.055875
  0.045688
  0.050782
  0.055875
  0.048235
  0.035502
  0.035502
  0.038048
  0.030408
  0.027862
  0.027862
  0.032955
  0.038048
  0.030408
  0.027862
  0.017675
  0.022768
  0.027862
  0.027862
  0.025315
  0.015128
  0.022768
  0.022768
  0.012581
  0.007488
  0.004941
  0.010035
  0.017675
  0.010035
  0.007488
  0.012581
  0.017675
  0.002395
 -0.000152
 -0.000152
  0.007488
  0.004941
 -0.002699
  0.004941
  0.007488
 -0.010339
 -0.012886
 -0.012886
 -0.007792
 -0.002699
 -0.012886
 -0.007792
 -0.002699
 -0.007792
 -0.012886
 -0.010339
 -0.005246
 -0.010339
 -0.007792
 -0.005246
 -0.005246
 -0.010339
 -0.012886
 -0.010339
 -0.002699
 -0.005246
 -0.012886
 -0.010339
 -0.002699
 -0.005246
 -0.012886
 -0.010339
 -0.005246
 -0.010339
 -0.007792
 -0.002699
 -0.007792
 -0.010339
 -0.012886
  0.002395
 -0.005246
 -0.012886
 -0.010339
 -0.002699
 -0.010339
 -0.010339
 -0.002699
 -0.007792
 -0.012886
 -0.007792
 -0.002699
 -0.002699
 -0.012886
 -0.007792
 -0.002699
 -0.005246
 -0.010339
 -0.010339
  0.010035
 -0.000152
  0.007488
  0.015128
  0.027862
  0.017675
  0.022768
  0.030408
  0.032955
  0.027862
  0.027862
  0.035502
  0.048235
  0.040595
  0.040595
  0.038048
  0.048235
  0.048235
  0.045688
  0.050782
  0.055875
  0.043142
  0.040595
  0.040595
  0.048235
  0.040595
  0.038048
  0.043142
  0.048235
  0.040595
  0.032955
  0.035502
  0.045688
  0.043142
  0.043142
  0.022768
  0.038048
  0.030408
  0.027862
  0.027862
  0.038048
  0.022768
  0.017675
  0.022768
  0.027862
  0.010035
  0.004941
  0.010035
  0.017675
  0.015128
  0.007488
  0.002395
  0.007488
 -0.000152
 -0.002699
  0.002395
 -0.000152
 -0.010339
 -0.012886
 -0.005246
 -0.000152
 -0.007792
 -0.007792
 -0.015432
 -0.007792
 -0.002699
 -0.007792
 -0.012886
 -0.007792
 -0.005246
 -0.007792
 -0.005246
 -0.012886
 -0.005246
 -0.005246
 -0.005246
 -0.010339
 -0.007792
 -0.002699
 -0.007792
 -0.010339
 -0.012886
 -0.007792
 -0.005246
 -0.002699
 -0.010339
 -0.012886
 -0.010339
 -0.002699
 -0.007792
 -0.012886
 -0.010339
 -0.002699
 -0.005246
 -0.012886
 -0.005246
 -0.002699
 -0.007792
 -0.012886
 -0.010339
 -0.007792
 -0.002699
 -0.005246
 -0.015432
 -0.007792
 -0.043446
 -0.038353
 -0.053633
 -0.058726
 -0.074006
 -0.066366
 -0.058726
 -0.058726
 -0.025619
 -0.023072
  0.101716
  0.096622
  0.300358
  0.305452
  0.384399
  0.389493
   0.48372
  0.478627
  0.618695
  0.611055
  0.705283
  0.710376
  0.763857
  0.758764
  0.855538
  0.860632
  0.881005
  0.883552
  0.959953
  0.957406
  0.949766
  0.957406
  0.962499
  0.944673
  0.937032
  0.881005
  0.868272
  0.809698
  0.804604
  0.763857
  0.763857
  0.677269
  0.674723
  0.527014
  0.524467
  0.389493
  0.381852
  0.267251
  0.272344
   0.19085
  0.193397
  0.101716
  0.096622
 -0.074006
 -0.066366
 -0.196248
 -0.198794
 -0.290476
 -0.287929
 -0.267555
 -0.262462
 -0.198794
 -0.201341
 -0.130034
 -0.127487
  -0.12494
 -0.127487
 -0.048539
 -0.043446
 -0.038353
 -0.045993
 -0.048539
 -0.038353
 -0.045993
 -0.043446
 -0.051086
 -0.043446
 -0.038353
 -0.043446
 -0.048539
 -0.045993
 -0.038353
 -0.045993
 -0.051086
 -0.051086
 -0.045993
 -0.043446
 -0.038353
 -0.048539
 -0.043446
 -0.038353
 -0.043446
 -0.048539
 -0.045993
 -0.040899
 -0.043446
 -0.051086
 -0.048539
 -0.043446
 -0.045993
