5000
1000
  -0.00941
 -0.010683
 -0.011956
 -0.010683
 -0.008774
  -0.00941
 -0.011956
  -0.00941
  -0.00941
 -0.010683
  -0.01132
 -0.010047
  -0.00941
 -0.010683
 -0.011956
 -0.010683
 -0.008774
 -0.010683
 -0.010683
 -0.010683
 -0.011956
 -0.008774
 -0.010683
  -0.01132
 -0.010683
 -0.010047
 -0.010047
 -0.010683
 -0.010047
 -0.008774
 -0.010683
  -0.01132
 -0.010047
 -0.010047
 -0.010047
 -0.010683
  -0.00941
  -0.00941
 -0.010047
 -0.011956
  -0.01132
 -0.010047
 -0.010047
  -0.01132
  -0.01132
  -0.00941
 -0.008774
 -0.010047
  -0.01132
 -0.008774
 -0.010047
 -0.010047
  -0.01132
 -0.010683
  -0.01132
 -0.008137
 -0.010683
 -0.010683
 -0.010047
 -0.010047
 -0.010683
 -0.010683
  -0.00941
 -0.010683
  -0.00941
 -0.010683
 -0.010683
  -0.00941
  -0.00941
  -0.01132
 -0.008774
 -0.010047
 -0.010047
 -0.010683
 -0.010047
  -0.00941
 -0.010683
  -0.01132
 -0.010683
 -0.008774
 -0.010047
 -0.010047
  -0.01132
 -0.010047
 -0.010047
  -0.00941
  -0.01132
 -0.010683
  -0.00941
 -0.010683
 -0.010683
 -0.010683
 -0.010047
 -0.010047
  -0.01132
 -0.010683
 -0.010047
 -0.008774
 -0.010047
  -0.01132
  -0.01132
  -0.00941
  -0.00941
  -0.01132
 -0.010047
 -0.008774
 -0.010047
 -0.010683
 -0.010683
 -0.008774
  -0.00941
 -0.010683
 -0.010683
 -0.010683
 -0.010683
 -0.010683
  -0.01132
 -0.010683
 -0.008774
 -0.010683
 -0.010683
  -0.01132
 -0.010047
 -0.010047
 -0.010683
  -0.01132
 -0.010683
 -0.008774
 -0.008774
  -0.00941
 -0.010047
 -0.010683
  -0.00941
 -0.010683
 -0.011956
  -0.01132
 -0.008774
 -0.010683
 -0.010047
 -0.010683
 -0.010047
 -0.010047
 -0.010047
 -0.012593
 -0.010683
 -0.010047
 -0.010047
 -0.010683
  -0.01132
 -0.010683
 -0.010047
 -0.010683
 -0.011956
 -0.010683
 -0.008774
  -0.00941
 -0.010683
  -0.01132
 -0.010683
  -0.00941
  -0.00941
 -0.010683
 -0.010683
 -0.010047
  -0.00941
 -0.010047
 -0.010047
 -0.010683
 -0.010047
  -0.01132
 -0.010683
 -0.010047
 -0.010683
  -0.00941
 -0.010683
 -0.010683
 -0.011956
 -0.010047
 -0.010683
 -0.010047
 -0.010047
 -0.011956
 -0.010047
 -0.010047
 -0.010683
 -0.010683
 -0.010683
 -0.008774
 -0.010683
 -0.010683
  -0.00941
 -0.008774
  -0.01132
 -0.010047
 -0.010047
 -0.008774
 -0.010683
 -0.010047
 -0.010683
  -0.01132
  -0.00941
 -0.010683
  -0.01132
 -0.010047
  -0.00941
 -0.008774
  -0.01132
 -0.010047
 -0.010683
 -0.008774
 -0.010683
 -0.011956
 -0.010683
 -0.010683
 -0.010047
 -0.010683
  -0.01132
 -0.010047
 -0.008774
 -0.010683
  -0.01132
 -0.010683
 -0.010683
 -0.008774
 -0.010047
  -0.01132
 -0.010683
  -0.00941
 -0.010047
 -0.010683
 -0.010047
  -0.00941
 -0.010047
  -0.01132
  -0.01132
 -0.010047
 -0.008774
 -0.010683
 -0.010683
 -0.010047
 -0.008774
 -0.010047
 -0.010047
  -0.01132
 -0.010047
 -0.010047
 -0.008774
 -0.010683
 -0.010047
 -0.010047
 -0.010683
 -0.010683
 -0.010683
 -0.010047
 -0.010047
 -0.010047
  -0.01132
 -0.010683
 -0.020231
 -0.010683
 -0.020868
 -0.011956
 -0.010047
 -0.008774
 -0.020231
  -0.01132
  -0.01132
 -0.000499
  -0.00941
  0.009049
  0.008412
  0.009049
 -0.001136
  0.008412
  0.007776
  0.017323
  0.018596
  0.019233
  0.009049
   0.01796
   0.01796
  0.018596
  0.019233
   0.01796
  0.017323
  0.018596
  0.018596
   0.01796
  0.017323
  0.018596
  0.018596
  0.019233
  0.018596
  0.027508
  0.028781
  0.028781
  0.026871
  0.028144
  0.029417
  0.027508
  0.026871
  0.027508
  0.029417
  0.027508
  0.026871
  0.027508
   0.01796
  0.018596
  0.017323
  0.028144
  0.018596
  0.019233
  0.018596
  0.017323
   0.01796
  0.027508
   0.01796
  0.016687
  0.017323
  0.019233
  0.009049
  0.006503
  0.009049
  0.019233
  0.009685
  0.008412
  0.007776
  0.003957
 -0.000499
 -0.000499
   0.00523
   0.00141
 -0.001772
 -0.008774
 -0.010047
  -0.01132
 -0.000499
 -0.010047
 -0.010047
 -0.010683
  -0.01132
 -0.010047
  -0.00941
 -0.010683
  -0.00941
 -0.010683
 -0.008774
 -0.010047
 -0.010683
  -0.01132
  -0.00941
 -0.010683
  -0.00941
  -0.01132
  -0.00941
 -0.010047
 -0.010683
  -0.01132
 -0.011956
  -0.00941
 -0.010047
 -0.010047
  -0.01132
 -0.010683
 -0.010047
 -0.008774
 -0.010683
 -0.010683
 -0.010683
 -0.010047
 -0.010683
 -0.010683
 -0.010683
 -0.010683
  -0.00941
 -0.010683
 -0.010683
 -0.010047
  -0.00941
 -0.008774
 -0.010683
 -0.010683
 -0.008774
 -0.010047
 -0.010683
  -0.00941
 -0.010683
 -0.010047
 -0.010683
  -0.01132
  -0.00941
 -0.010683
 -0.010683
 -0.010683
 -0.010047
 -0.010047
 -0.010683
 -0.010047
  -0.00941
 -0.010047
 -0.011956
 -0.010047
 -0.010047
 -0.010683
 -0.010047
 -0.010047
  -0.01132
 -0.010683
 -0.006228
 -0.001772
 -0.010683
 -0.008137
 -0.004955
 -0.016412
 -0.004955
 -0.019595
 -0.038053
 -0.039327
 -0.066697
 -0.050784
 -0.077517
 -0.048874
 -0.143715
 -0.089611
 -0.286931
 -0.117618
 -0.204184
 -0.146261
 -0.230918
 -0.146898
 -0.223279
 -0.136713
 -0.201001
 -0.116981
 -0.204184
 -0.127166
 -0.181906
 -0.125893
 -0.224552
 -0.097886
 -0.115708
  -0.06797
 -0.097886
 -0.057785
 -0.106161
 -0.057149
 -0.059058
 -0.049511
 -0.048874
 -0.030415
  -0.00941
  0.012868
  0.037692
  0.031963
  0.031327
  0.082248
  0.057424
  0.080975
  0.052332
  0.128077
  0.080338
  0.140807
  0.079702
  0.161176
   0.08734
  0.217826
  0.097524
  0.210824
   0.11662
  0.201276
  0.103889
  0.192365
   0.11471
  0.211461
  0.115983
  0.193002
  0.094978
  0.219099
  0.123621
  0.172633
  0.057424
   0.08543
 -0.001136
 -0.020868
 -0.000499
 -0.019595
 -0.001772
 -0.022141
  0.008412
 -0.010683
  0.007776
  -0.01132
  0.002047
 -0.001772
  0.009049
  0.008412
  0.008412
  0.008412
  0.009685
  0.009049
  0.008412
  0.007776
  0.009049
  0.010322
  0.008412
  0.008412
  0.009049
  0.009685
  0.009685
  0.009049
  0.007139
  0.008412
  0.009049
  0.009049
  0.009049
  0.007776
  0.009049
  0.009685
  0.008412
  0.009049
  0.009685
  0.009049
  0.010322
  0.009049
  0.009685
  0.008412
  0.010322
  0.008412
  0.007139
  0.008412
  0.009685
  0.010322
  0.008412
  0.008412
  0.009049
  0.009049
  0.009049
  0.009049
  0.008412
  0.009049
  0.009685
  0.009685
  0.008412
  0.008412
  0.009685
  0.009049
  0.009685
  0.009049
  0.007139
  0.008412
  0.009685
  0.008412
  0.009685
  0.009049
  0.009049
  0.009685
  0.008412
  0.008412
  0.009685
  0.008412
  0.009685
  0.009049
  0.008412
  0.007776
  0.009049
  0.009685
  0.009049
  0.008412
  0.008412
  0.009685
  0.009685
  0.009049
  0.009049
  0.009685
  0.009049
  0.008412
  0.008412
  0.008412
  0.009049
  0.009685
  0.009685
  0.008412
  0.009049
  0.009685
 -0.000499
  0.007139
  0.009049
  0.007776
  0.009685
  0.007776
 -0.001136
  0.008412
 -0.001136
  0.006503
  0.008412
  0.009049
 -0.000499
  0.007139
 -0.001136
  0.008412
 -0.001136
  0.007139
 -0.000499
  0.008412
  0.009049
  0.007139
 -0.001136
  0.010322
 -0.010683
  0.007139
 -0.001772
  0.009049
 -0.001772
  0.007776
 -0.001136
  0.009049
 -0.000499
  0.004593
  0.002047
  0.004593
  0.004593
 -0.004955
 -0.001772
 -0.010047
   0.00523
 -0.000499
  0.008412
 -0.000499
  0.006503
 -0.000499
  0.008412
 -0.001772
  0.007139
 -0.000499
  0.009685
 -0.010047
  0.008412
 -0.001772
  0.009049
  0.009049
  0.007139
 -0.000499
  0.009049
 -0.001136
  0.007139
 -0.001136
  0.008412
 -0.001772
  0.008412
  0.009049
  0.009049
 -0.000499
  0.007776
 -0.001136
  0.008412
  0.009049
  0.008412
  0.007139
  0.007776
  0.002047
  0.009685
  0.008412
  0.009049
  0.007139
  0.007139
  0.009049
  0.009049
  0.009049
  0.009049
  0.007776
  0.007139
  0.006503
  0.017323
  0.009685
  0.008412
  0.007139
  0.008412
  0.008412
  0.010322
 -0.000499
  0.009049
  0.008412
  0.009049
  0.010958
  0.017323
  0.008412
  0.008412
  0.008412
  0.009049
 -0.001772
  0.008412
  0.007139
  0.008412
 -0.000499
  0.009685
 -0.000499
  0.007139
  0.007776
  0.007776
  0.000137
  0.007139
 -0.001772
 -0.001136
  0.003957
   0.00332
  0.006503
   0.00141
 -0.001772
 -0.000499
  0.008412
  0.002047
  0.008412
 -0.001772
 -0.001772
  0.000137
  0.009049
 -0.000499
 -0.001772
 -0.000499
  0.009049
 -0.000499
 -0.001136
 -0.011956
 -0.001136
 -0.010047
 -0.000499
 -0.001136
 -0.001136
  -0.01132
  -0.01132
  -0.00941
 -0.000499
  -0.01132
  -0.01132
 -0.010047
 -0.010683
  -0.01132
 -0.010683
 -0.020231
 -0.020231
 -0.020868
 -0.019595
 -0.018958
 -0.020868
 -0.017048
 -0.010683
 -0.010683
  -0.00941
 -0.010047
  -0.01132
  -0.01132
 -0.010047
 -0.010683
 -0.010683
  -0.01132
 -0.010683
 -0.000499
 -0.010047
 -0.010683
 -0.010683
  -0.00941
 -0.010047
 -0.010683
 -0.010047
 -0.008774
  -0.00941
 -0.010047
 -0.011956
  -0.00941
  -0.00941
 -0.010683
 -0.010683
 -0.010683
  -0.00941
 -0.010047
 -0.010683
 -0.010683
  -0.00941
 -0.010047
  -0.01132
 -0.010047
 -0.010047
 -0.010683
  -0.01132
  -0.00941
  -0.00941
 -0.010047
  -0.01132
 -0.010683
 -0.010047
 -0.010047
  -0.01132
 -0.010683
 -0.010047
 -0.010683
 -0.010683
 -0.008774
  -0.00941
 -0.011956
 -0.010683
 -0.010047
 -0.010683
 -0.011956
 -0.010683
 -0.010047
 -0.010047
 -0.010683
 -0.010683
  -0.00941
 -0.010683
  -0.01132
 -0.010683
  -0.00941
 -0.010047
 -0.010683
 -0.010047
 -0.010047
 -0.010047
  -0.01132
  -0.00941
 -0.010047
  -0.00941
 -0.012593
 -0.010047
  -0.00941
 -0.010047
  -0.01132
 -0.010047
 -0.008774
 -0.010047
  -0.01132
  -0.00941
  -0.00941
 -0.010683
 -0.010683
 -0.010683
 -0.008774
 -0.010683
 -0.011956
 -0.010683
 -0.008774
 -0.008774
  -0.01132
 -0.010047
 -0.010047
 -0.010047
 -0.010047
 -0.010683
  -0.01132
 -0.008774
 -0.010683
 -0.011956
 -0.010683
 -0.008774
  -0.01132
 -0.010047
 -0.010683
 -0.010047
 -0.010683
  -0.01132
  -0.00941
  -0.00941
 -0.010047
 -0.010683
 -0.010683
  -0.00941
 -0.010047
 -0.010047
 -0.010683
 -0.010047
 -0.010047
 -0.010683
 -0.010683
  -0.00941
 -0.008774
  -0.00941
 -0.010683
 -0.010047
 -0.008774
 -0.010683
 -0.010683
 -0.010047
 -0.010047
  -0.01132
 -0.010683
  -0.00941
 -0.010047
 -0.010683
 -0.010683
  -0.00941
 -0.010047
  -0.01132
 -0.010683
 -0.008774
 -0.010683
  -0.01132
 -0.010047
 -0.008774
 -0.010683
  -0.01132
 -0.010047
 -0.010683
 -0.011956
 -0.010047
 -0.008774
 -0.010047
  -0.01132
 -0.010683
 -0.010683
 -0.010047
  -0.01132
  -0.00941
 -0.008774
 -0.010683
 -0.010683
 -0.010683
 -0.010047
 -0.010047
 -0.011956
 -0.008774
  -0.00941
 -0.010047
  -0.01132
 -0.010683
 -0.008774
 -0.010047
 -0.010683
  -0.00941
 -0.008774
 -0.010683
 -0.010683
 -0.008137
  -0.01132
  -0.01132
 -0.010047
  -0.00941
 -0.010047
  -0.01132
 -0.010047
 -0.010047
 -0.010683
  -0.01132
 -0.010683
 -0.010047
 -0.011956
 -0.010683
  -0.00941
  -0.01132
 -0.011956
 -0.010047
 -0.010047
  -0.01132
 -0.010047
 -0.008774
 -0.010683
 -0.010683
  -0.00941
 -0.010047
 -0.010047
 -0.010047
 -0.010047
 -0.010047
  -0.01132
 -0.010683
  -0.00941
 -0.010683
 -0.010683
 -0.008774
 -0.010683
 -0.010047
  -0.00941
 -0.010047
  -0.01132
  -0.01132
  -0.00941
 -0.010683
 -0.010683
  -0.00941
  -0.00941
  -0.01132
 -0.008774
  -0.00941
  -0.00941
 -0.011956
  -0.00941
 -0.010683
  -0.01132
 -0.010683
 -0.008774
 -0.010683
  -0.01132
 -0.010047
 -0.010047
 -0.010047
 -0.010683
 -0.010683
  -0.00941
 -0.010683
  -0.01132
  -0.00941
 -0.010047
  -0.01132
  -0.00941
 -0.008774
 -0.010683
  -0.01132
 -0.010047
 -0.008774
 -0.010047
 -0.010683
 -0.010683
  -0.00941
  -0.01132
  -0.01132
 -0.010683
 -0.010683
 -0.008774
 -0.010683
 -0.010683
 -0.010683
 -0.010683
 -0.010683
  -0.01132
 -0.010683
  -0.01132
 -0.010047
 -0.010047
 -0.010047
 -0.011956
 -0.010047
 -0.010047
  -0.00941
 -0.010047
 -0.010683
 -0.010683
 -0.008774
 -0.010047
  -0.01132
 -0.010683
 -0.010047
  -0.00941
  -0.01132
 -0.010047
  -0.00941
 -0.010047
 -0.010683
 -0.010683
  -0.00941
 -0.010047
 -0.010683
  -0.01132
  -0.00941
 -0.010683
 -0.010683
 -0.010683
 -0.010047
 -0.010683
 -0.020868
 -0.010683
 -0.020231
 -0.010683
 -0.011956
 -0.010683
 -0.018958
 -0.010047
 -0.010047
 -0.003045
 -0.010683
  0.009685
  0.009685
  0.009685
 -0.000499
  0.009685
  0.009049
  0.016687
  0.017323
  0.016687
  0.012231
   0.01796
  0.017323
  0.019869
  0.018596
  0.017323
   0.01796
  0.019233
  0.018596
   0.01796
  0.018596
  0.019869
  0.017323
  0.017323
   0.01796
  0.028781
  0.028144
  0.028144
  0.026235
  0.028144
  0.028781
  0.027508
  0.026871
  0.028781
  0.028144
  0.027508
  0.026871
  0.027508
  0.018596
  0.017323
  0.016687
  0.028144
  0.019869
   0.01796
   0.01796
  0.018596
  0.019233
  0.028144
  0.016687
  0.017323
  0.018596
  0.017323
  0.009049
  0.007139
  0.015414
  0.011595
  0.008412
  0.009049
  0.007776
  0.000137
  0.000137
 -0.000499
  0.007139
 -0.000499
  0.000137
 -0.010683
 -0.011956
  -0.01132
  0.000137
 -0.010683
 -0.010683
  -0.01132
 -0.010683
  -0.01132
 -0.010683
 -0.010683
 -0.008774
 -0.010683
  -0.01132
  -0.01132
 -0.008774
 -0.010683
  -0.01132
  -0.01132
 -0.010047
  -0.01132
 -0.010683
  -0.01132
 -0.010683
 -0.010047
  -0.01132
  -0.00941
 -0.010047
  -0.00941
 -0.010683
 -0.010683
  -0.00941
 -0.010047
 -0.011956
 -0.010047
  -0.00941
 -0.010047
  -0.01132
 -0.010047
 -0.010047
  -0.00941
  -0.01132
  -0.01132
 -0.008774
 -0.010047
 -0.010683
 -0.010683
  -0.00941
 -0.010683
 -0.010683
 -0.010683
  -0.00941
  -0.00941
  -0.01132
 -0.010047
 -0.008774
 -0.010683
 -0.010683
 -0.010683
 -0.010047
 -0.008774
 -0.010683
 -0.010047
 -0.010683
  -0.01132
  -0.00941
 -0.010047
 -0.010047
 -0.011956
 -0.010683
 -0.010683
 -0.010047
 -0.010683
 -0.010683
  -0.00941
 -0.010683
 -0.011956
  0.006503
 -0.016412
 -0.001136
 -0.011956
 -0.001772
 -0.018958
 -0.001772
 -0.020868
 -0.041236
 -0.039963
 -0.069879
 -0.048238
 -0.076244
 -0.050784
 -0.145625
 -0.087702
  -0.29075
 -0.115708
 -0.203547
 -0.146261
 -0.234737
 -0.146898
 -0.222643
  -0.13735
 -0.202274
 -0.115072
 -0.202274
 -0.126529
 -0.183815
 -0.125256
 -0.222643
 -0.098522
 -0.116981
 -0.068606
 -0.088338
 -0.078154
 -0.081337
 -0.057149
 -0.050784
 -0.049511
 -0.033598
 -0.012593
 -0.010047
  0.042147
  0.030054
  0.037055
  0.026871
  0.093069
  0.050422
  0.086704
  0.047876
  0.133806
  0.078429
  0.145899
  0.077156
  0.161812
   0.08543
  0.219099
  0.096251
  0.211461
  0.115347
  0.203822
  0.104526
  0.190456
  0.113437
  0.212097
   0.11662
  0.191092
  0.094978
  0.221645
  0.123621
   0.17136
  0.056787
  0.086704
 -0.002409
 -0.020231
 -0.005591
 -0.011956
 -0.012593
 -0.001772
 -0.004955
  0.005866
  -0.00941
  0.006503
 -0.008137
  0.008412
  0.008412
  0.009049
  0.009049
  0.008412
  0.007776
  0.009685
  0.008412
  0.009049
  0.009049
  0.009685
  0.009049
  0.007776
  0.008412
  0.009685
  0.009685
  0.007139
  0.009049
  0.009049
  0.009049
  0.007776
  0.009049
  0.009685
  0.008412
  0.007776
  0.009049
  0.010322
  0.009685
  0.008412
  0.008412
  0.009685
  0.009049
  0.008412
  0.009049
  0.009049
  0.009049
  0.009049
  0.008412
  0.009685
  0.007776
  0.008412
  0.009685
  0.009049
  0.008412
  0.009049
  0.010322
  0.009049
  0.007776
  0.008412
  0.009685
  0.009049
  0.008412
  0.008412
  0.009685
  0.009049
  0.009049
  0.009049
  0.010322
  0.007776
  0.007776
  0.008412
  0.010322
  0.009049
  0.008412
  0.008412
  0.009049
  0.010322
  0.007776
  0.009685
  0.009685
  0.010322
  0.008412
  0.008412
  0.010322
  0.009685
  0.008412
  0.009049
  0.009049
  0.007139
  0.009049
  0.009685
  0.009049
  0.009049
  0.008412
  0.009049
  0.009049
  0.007776
  0.008412
  0.009685
  0.008412
  0.007139
 -0.000499
  0.009049
  0.008412
  0.007776
  0.008412
  0.009685
 -0.001136
  0.007139
 -0.002409
  0.010958
  0.007139
  0.008412
 -0.000499
  0.009049
 -0.003045
  0.007776
 -0.000499
  0.007776
 -0.003045
  0.008412
  0.009049
  0.008412
 -0.001772
  0.009049
  -0.00941
  0.006503
   0.00141
  0.003957
  0.005866
  0.000774
   0.00523
  0.000774
  0.007139
 -0.001136
   0.00523
 -0.000499
  0.009685
 -0.010683
 -0.001772
 -0.010683
  0.009049
 -0.000499
  0.007776
 -0.002409
  0.008412
 -0.000499
  0.009049
 -0.001772
  0.007776
  0.000774
  0.009685
 -0.011956
  0.009049
 -0.001772
  0.006503
  0.007776
  0.008412
 -0.000499
  0.009049
 -0.001772
  0.007139
 -0.000499
  0.009049
 -0.002409
  0.007776
  0.009049
  0.009049
  0.000774
   0.00523
  0.005866
  0.008412
  0.009049
  0.007776
  0.007139
  0.000774
  0.007139
  0.007776
  0.008412
  0.010322
  0.006503
  0.009049
  0.008412
  0.009049
  0.008412
  0.007139
  0.008412
  0.009049
  0.008412
  0.017323
  0.008412
  0.009685
  0.008412
  0.007139
  0.009685
  0.009685
 -0.000499
  0.008412
  0.009049
  0.009685
  0.009685
  0.017323
  0.007139
  0.009049
  0.007776
  0.007776
 -0.000499
  0.008412
  0.008412
  0.006503
  0.000774
  0.003957
  0.004593
  0.007776
  0.008412
   0.00141
  0.007139
 -0.001772
 -0.001136
 -0.000499
  0.009049
 -0.000499
  0.008412
 -0.001772
 -0.001772
 -0.001772
  0.009685
 -0.000499
  0.007776
 -0.001136
 -0.000499
 -0.000499
  0.007139
 -0.001136
 -0.000499
 -0.000499
  0.007139
 -0.001136
 -0.000499
 -0.010683
 -0.001136
 -0.010683
 -0.000499
 -0.001136
 -0.001772
 -0.010683
 -0.010683
 -0.010683
 -0.001136
 -0.010683
 -0.010047
 -0.010683
 -0.011956
 -0.010683
 -0.016412
 -0.020231
 -0.021504
 -0.020231
 -0.020231
 -0.018958
 -0.021504
  -0.01132
  -0.00941
 -0.010047
 -0.010683
 -0.010047
 -0.010047
 -0.010683
 -0.011956
  -0.00941
 -0.010047
 -0.010683
 -0.011956
  0.000137
 -0.010047
 -0.010683
 -0.010047
 -0.010047
 -0.010683
 -0.010683
 -0.010683
  -0.00941
 -0.010683
 -0.010683
 -0.010683
 -0.008774
 -0.010047
 -0.011956
 -0.010047
  -0.00941
 -0.010683
 -0.012593
 -0.010683
 -0.010047
 -0.010047
 -0.011956
 -0.010683
  -0.00941
 -0.010047
 -0.010683
 -0.010047
 -0.010683
  -0.01132
 -0.010683
  -0.00941
 -0.010683
  -0.01132
 -0.010683
  -0.00941
 -0.010683
 -0.010683
 -0.008774
 -0.010047
 -0.010683
 -0.010683
 -0.008774
 -0.010047
 -0.010683
 -0.010047
 -0.010047
 -0.010047
 -0.010683
 -0.010047
  -0.00941
 -0.008774
 -0.010683
 -0.010683
 -0.008774
 -0.010047
 -0.010683
 -0.008774
 -0.010683
 -0.011956
  -0.01132
 -0.010047
  -0.00941
  -0.01132
  -0.01132
 -0.010047
 -0.010047
  -0.01132
 -0.010047
 -0.010047
 -0.010047
  -0.01132
 -0.010683
 -0.008774
 -0.010683
 -0.010683
 -0.010683
 -0.010683
 -0.010047
 -0.011956
 -0.010683
  -0.00941
  -0.00941
 -0.010047
  -0.01132
 -0.010683
 -0.010047
 -0.010683
 -0.010683
 -0.010683
 -0.008774
 -0.010683
 -0.010683
 -0.010683
  -0.00941
 -0.010683
 -0.010047
 -0.010683
 -0.011956
 -0.010683
 -0.010047
 -0.010047
 -0.010047
 -0.010683
 -0.008774
 -0.010047
  -0.01132
 -0.010683
 -0.008774
 -0.010683
  -0.01132
 -0.010683
 -0.010047
  -0.00941
 -0.011956
 -0.010683
 -0.010683
 -0.010683
 -0.010047
 -0.008774
 -0.010683
 -0.010683
 -0.010683
 -0.010047
 -0.010047
  -0.00941
 -0.010047
 -0.010047
 -0.010683
 -0.010683
 -0.008774
  -0.00941
 -0.010683
 -0.010047
  -0.00941
 -0.010683
  -0.01132
 -0.010683
 -0.008774
 -0.010047
 -0.010683
 -0.010683
 -0.008774
 -0.010047
  -0.01132
 -0.010683
 -0.010683
 -0.010683
  -0.01132
 -0.010683
 -0.008774
 -0.010047
 -0.010683
 -0.010047
 -0.010047
 -0.010047
  -0.01132
 -0.010683
 -0.010047
  -0.00941
  -0.01132
 -0.010047
 -0.008774
 -0.010047
 -0.010683
 -0.010683
  -0.00941
  -0.01132
 -0.011956
 -0.008774
 -0.008774
 -0.010683
 -0.010683
 -0.010047
 -0.010683
 -0.010683
 -0.010683
 -0.010047
 -0.010047
 -0.010683
 -0.010047
 -0.010047
  -0.01132
  -0.01132
 -0.010047
 -0.010683
 -0.010683
 -0.010683
 -0.010683
  -0.01132
 -0.010683
  -0.00941
 -0.010683
  -0.01132
 -0.010047
 -0.008774
 -0.010683
  -0.01132
 -0.010047
 -0.008774
 -0.010047
  -0.01132
 -0.010683
 -0.008774
 -0.011956
  -0.01132
 -0.010683
 -0.008774
  -0.00941
 -0.010683
 -0.010683
 -0.008774
 -0.008774
 -0.010683
 -0.010047
 -0.010047
 -0.010683
  -0.01132
  -0.00941
  -0.00941
 -0.010047
  -0.01132
 -0.010683
  -0.00941
 -0.010683
 -0.010683
 -0.010047
 -0.010047
  -0.00941
  -0.01132
 -0.010047
 -0.010047
 -0.010683
 -0.010683
 -0.010683
  -0.00941
 -0.008774
 -0.010047
 -0.011956
 -0.010047
 -0.010683
 -0.010047
 -0.010047
  -0.01132
 -0.010683
 -0.010683
  -0.00941
 -0.010683
 -0.010683
 -0.011956
 -0.010047
 -0.008774
 -0.008774
 -0.010047
 -0.010683
 -0.010683
 -0.010683
 -0.008774
 -0.010683
 -0.010683
 -0.010683
 -0.010047
 -0.010683
 -0.010683
 -0.010683
 -0.010683
 -0.008774
 -0.012593
  -0.01132
 -0.008774
 -0.010047
 -0.010683
  -0.01132
  -0.01132
  -0.00941
  -0.01132
 -0.010683
 -0.010047
 -0.010683
  -0.01132
 -0.010047
 -0.008774
 -0.010683
  -0.01132
 -0.010683
  -0.00941
  -0.00941
 -0.012593
 -0.010683
 -0.010047
 -0.010047
  -0.01132
 -0.010683
 -0.010047
 -0.012593
 -0.010047
 -0.010047
 -0.010047
  -0.01132
 -0.021504
 -0.010683
 -0.021504
 -0.010683
  -0.00941
 -0.010683
 -0.020868
  -0.01132
 -0.010047
 -0.000499
 -0.012593
  0.009685
  0.009685
  0.007776
  0.000137
  0.008412
  0.015414
  0.018596
  0.017323
  0.010322
   0.01796
  0.018596
  0.016687
  0.018596
  0.019233
  0.018596
  0.018596
  0.017323
  0.018596
   0.01796
   0.01796
  0.019233
  0.019233
  0.017323
   0.01796
  0.028144
  0.028144
  0.027508
  0.027508
  0.028144
  0.026871
  0.028144
  0.029417
  0.027508
  0.026235
  0.028781
  0.027508
  0.025598
  0.017323
  0.019233
   0.01796
  0.026871
  0.018596
  0.019233
  0.018596
  0.017323
  0.021779
  0.023689
  0.019233
   0.01605
  0.018596
  0.011595
  0.008412
  0.007139
  0.018596
  0.009685
  0.008412
  0.007776
  0.008412
 -0.000499
 -0.000499
  0.000137
  0.009049
 -0.001772
 -0.001136
 -0.010683
  -0.01132
  -0.01132
  0.000137
  -0.01132
 -0.010683
 -0.010047
 -0.010047
 -0.010683
 -0.010683
 -0.010047
 -0.010683
 -0.010683
 -0.010047
 -0.010683
  -0.01132
  -0.00941
 -0.010683
 -0.010047
  -0.01132
 -0.010047
 -0.010683
 -0.010683
 -0.011956
 -0.010683
  -0.00941
  -0.01132
 -0.010683
 -0.008774
 -0.008774
  -0.01132
 -0.010683
  -0.00941
  -0.01132
 -0.010683
 -0.010683
 -0.010683
  -0.01132
 -0.010047
  -0.01132
  -0.01132
  -0.00941
 -0.008774
 -0.010047
 -0.010683
 -0.010047
 -0.008774
 -0.010683
 -0.010683
  -0.01132
  -0.00941
 -0.010047
 -0.010047
 -0.010047
  -0.01132
  -0.01132
 -0.010683
 -0.008774
 -0.010683
  -0.01132
  -0.01132
 -0.008774
 -0.010683
 -0.010683
 -0.008774
 -0.010047
 -0.010683
 -0.010047
 -0.008137
 -0.008774
 -0.010683
 -0.010047
  -0.00941
  -0.00941
  -0.01132
 -0.010683
 -0.008774
  0.006503
 -0.020868
 -0.001136
 -0.010047
 -0.000499
 -0.021504
 -0.001772
 -0.020868
   -0.0406
 -0.041873
  -0.06797
 -0.049511
 -0.077517
 -0.048238
 -0.143715
 -0.089611
 -0.291387
 -0.115072
 -0.202274
 -0.146261
 -0.233464
 -0.146261
 -0.222643
 -0.136077
 -0.202274
 -0.115072
 -0.202274
 -0.127166
 -0.172358
 -0.162174
 -0.157082
 -0.110616
 -0.081973
 -0.090248
 -0.064787
 -0.101068
 -0.062878
 -0.058422
 -0.050147
 -0.048874
 -0.029142
 -0.010683
 -0.010683
   0.04724
  0.028144
  0.035146
  0.028781
  0.097524
  0.048513
  0.086067
  0.047876
  0.135079
  0.075883
  0.144626
  0.077792
  0.163085
  0.084794
  0.220372
  0.096888
  0.212097
  0.114074
  0.201913
  0.105162
  0.190456
  0.115347
  0.212734
  0.115347
  0.190456
  0.094978
  0.221008
  0.136988
  0.124258
  0.073973
  0.030054
 -0.017048
 -0.004955
 -0.016412
 -0.002409
 -0.018958
  0.005866
  -0.00941
  0.007139
 -0.010683
  0.007776
 -0.010047
  0.009049
  0.009049
  0.009049
  0.009049
  0.008412
  0.007776
  0.009685
  0.008412
  0.009049
  0.007776
  0.009685
  0.009049
  0.007139
  0.008412
  0.009049
  0.008412
  0.008412
  0.009049
  0.009685
  0.009685
  0.008412
  0.009049
  0.009049
  0.008412
  0.008412
  0.010322
  0.009049
  0.007139
  0.009049
  0.009049
  0.009685
  0.007139
  0.009049
  0.009049
  0.009049
  0.009049
  0.009049
  0.010322
  0.009049
  0.009685
  0.009685
  0.010322
  0.008412
  0.009685
  0.009049
  0.010322
  0.007776
  0.007776
  0.009049
  0.009049
  0.009049
  0.007776
  0.009685
  0.009049
  0.007776
  0.009049
  0.009685
  0.009049
  0.007776
  0.009685
  0.009049
  0.008412
  0.009049
  0.009685
  0.008412
  0.008412
  0.008412
  0.010322
  0.008412
  0.007139
  0.009049
  0.010322
  0.009049
  0.008412
  0.009049
  0.009685
  0.008412
  0.008412
  0.009049
  0.010322
  0.009049
  0.007139
  0.007776
  0.009685
  0.010958
  0.009049
  0.007776
  0.008412
  0.009685
  0.009685
  0.009685
 -0.001772
  0.009049
  0.008412
  0.009685
  0.008412
  0.008412
 -0.001772
  0.009049
 -0.001136
  0.009049
  0.006503
  0.007776
  0.000137
  0.009049
 -0.001136
  0.007139
 -0.001136
  0.009049
  0.000137
  0.007139
  0.007139
  0.002683
  0.006503
 -0.005591
  0.002047
 -0.000499
  0.007139
  0.000774
  0.008412
 -0.001772
  0.008412
 -0.001136
  0.008412
 -0.001772
  0.007139
 -0.000499
  0.009049
 -0.010047
 -0.000499
  -0.01132
  0.007139
 -0.000499
  0.009049
 -0.001772
  0.007776
 -0.000499
  0.007139
 -0.002409
  0.008412
  0.000774
  0.009049
  -0.01132
  0.008412
 -0.000499
  0.009049
  0.009049
  0.009049
 -0.000499
  0.009049
 -0.001772
  0.009049
   0.00141
   0.00332
  0.004593
  0.009049
  0.007776
   0.00141
  0.007776
 -0.000499
  0.007776
  0.007139
  0.009049
  0.009049
  0.008412
 -0.000499
  0.009685
  0.007776
  0.007139
  0.008412
  0.009049
  0.008412
  0.007776
  0.009049
  0.007776
  0.007776
  0.007776
  0.009685
  0.009049
  0.017323
  0.009049
  0.009685
  0.008412
  0.007776
  0.008412
  0.008412
 -0.000499
  0.009049
  0.009685
  0.009685
  0.009049
  0.017323
  0.008412
  0.009049
  0.008412
  0.002047
  0.003957
  0.009049
  0.009049
 -0.000499
  0.007139
   0.00141
  0.007776
  0.007776
  0.009049
  0.000137
  0.009049
 -0.002409
 -0.001136
 -0.000499
  0.007776
 -0.001136
  0.008412
 -0.000499
 -0.000499
 -0.001136
  0.009049
  0.000774
  0.007776
 -0.001772
 -0.000499
 -0.001136
  0.009049
 -0.000499
 -0.001772
 -0.000499
  0.009049
 -0.001136
 -0.000499
 -0.011956
  0.000774
 -0.010683
 -0.003682
 -0.001136
 -0.000499
 -0.010683
 -0.011956
 -0.005591
 -0.006864
 -0.010683
  -0.01132
 -0.010047
 -0.010047
 -0.010683
 -0.018958
 -0.018958
 -0.020231
 -0.020868
 -0.020231
 -0.018958
 -0.020868
  -0.01132
 -0.010683
 -0.010683
 -0.010683
 -0.010683
 -0.010683
  -0.00941
  -0.01132
 -0.011956
 -0.010683
 -0.010683
  -0.00941
  0.000137
  -0.01132
 -0.010683
 -0.010047
 -0.010047
 -0.010683
 -0.010683
 -0.008774
 -0.010683
 -0.010683
 -0.010683
 -0.010047
 -0.010683
 -0.010683
 -0.010047
 -0.010047
  -0.00941
 -0.010683
 -0.010683
 -0.008774
 -0.010047
 -0.010683
 -0.010683
 -0.008774
 -0.010683
 -0.010047
 -0.011956
 -0.010047
 -0.010683
 -0.010683
  -0.01132
  -0.00941
 -0.010683
 -0.010683
 -0.010683
  -0.00941
 -0.010047
 -0.010683
 -0.010683
 -0.008774
 -0.010683
  -0.01132
 -0.010683
  -0.00941
 -0.010683
  -0.01132
 -0.010047
  -0.00941
 -0.010683
 -0.010683
 -0.010683
  -0.01132
 -0.010683
 -0.011956
 -0.010683
  -0.00941
 -0.010683
 -0.010683
 -0.010047
 -0.010047
  -0.00941
  -0.01132
 -0.010047
 -0.010683
 -0.010047
 -0.010047
 -0.011956
 -0.010683
 -0.010047
 -0.010047
 -0.010683
  -0.00941
 -0.008137
 -0.010047
  -0.01132
 -0.010683
  -0.00941
 -0.010683
  -0.01132
 -0.010047
 -0.008774
 -0.010683
 -0.010683
  -0.01132
 -0.010047
 -0.011956
 -0.010683
 -0.008774
 -0.010047
 -0.011956
  -0.00941
 -0.010047
 -0.010047
 -0.010683
  -0.00941
 -0.010683
 -0.010047
 -0.010683
 -0.010683
 -0.010683
  -0.01132
 -0.010683
  -0.00941
 -0.010047
  -0.01132
 -0.010683
  -0.00941
 -0.010683
  -0.01132
  -0.01132
 -0.010683
  -0.00941
 -0.010683
 -0.010683
 -0.010047
  -0.00941
 -0.010683
  -0.01132
 -0.010683
 -0.010683
 -0.010683
 -0.010683
 -0.008774
 -0.010047
 -0.010683
 -0.010047
 -0.010047
  -0.01132
 -0.010683
 -0.010683
 -0.010683
 -0.010683
 -0.010683
 -0.008774
 -0.010683
  -0.01132
 -0.010683
 -0.010047
 -0.010047
 -0.010683
 -0.010047
  -0.00941
  -0.00941
 -0.010047
 -0.010047
  -0.00941
 -0.010047
  -0.00941
 -0.010683
  -0.01132
 -0.010047
  -0.00941
 -0.010047
 -0.010047
 -0.010683
 -0.010047
  -0.00941
 -0.010683
  -0.01132
 -0.010683
 -0.010683
  -0.00941
 -0.010683
 -0.010683
  -0.00941
 -0.010047
 -0.010683
 -0.011956
 -0.010683
 -0.010683
  -0.00941
 -0.010683
 -0.010683
 -0.010047
  -0.00941
 -0.010683
 -0.010683
 -0.008774
 -0.010047
 -0.010047
 -0.010047
 -0.010683
  -0.00941
 -0.010047
  -0.01132
 -0.010683
 -0.010047
 -0.010047
 -0.010683
 -0.010683
  -0.00941
 -0.010047
 -0.010683
 -0.010047
 -0.008774
 -0.010047
  -0.01132
 -0.010683
 -0.008774
 -0.010047
  -0.01132
 -0.010047
 -0.008774
 -0.010047
 -0.010683
 -0.010683
 -0.010683
 -0.010683
 -0.010683
  -0.00941
 -0.010683
 -0.010683
  -0.01132
 -0.008774
 -0.010683
 -0.010047
 -0.010683
  -0.00941
 -0.010683
  -0.00941
 -0.010047
  -0.01132
 -0.010683
 -0.010047
 -0.008774
  -0.00941
 -0.010683
 -0.010683
 -0.010047
 -0.010047
  -0.01132
 -0.010683
  -0.00941
  -0.00941
  -0.01132
 -0.010047
 -0.010047
 -0.010047
 -0.011956
 -0.010683
 -0.010683
 -0.010683
  -0.01132
 -0.010047
 -0.010047
  -0.00941
 -0.010683
 -0.010047
 -0.010047
 -0.010047
 -0.010683
 -0.010683
 -0.010683
 -0.010047
 -0.010047
 -0.010683
  -0.01132
  -0.00941
 -0.010683
  -0.01132
 -0.010683
  -0.00941
 -0.010683
  -0.01132
 -0.010683
 -0.008774
 -0.010683
 -0.010683
 -0.010047
  -0.00941
 -0.010047
  -0.01132
 -0.010683
 -0.010047
 -0.010047
  -0.01132
 -0.010683
 -0.008774
 -0.010047
  -0.01132
 -0.010047
 -0.010047
 -0.010683
 -0.010683
 -0.010683
 -0.010047
 -0.011956
 -0.010683
 -0.010683
 -0.008774
 -0.010047
  -0.01132
  -0.01132
  -0.00941
  -0.00941
 -0.010683
  -0.00941
  -0.00941
 -0.010047
  -0.01132
  -0.00941
 -0.019595
 -0.010047
 -0.021504
 -0.008774
 -0.010047
  -0.01132
 -0.017685
 -0.010683
 -0.004318
 -0.008137
  0.003957
  0.008412
  0.009049
 -0.000499
  0.006503
  0.009685
  0.018596
  0.016687
  0.017323
  0.007776
   0.01796
  0.016687
   0.01796
  0.019233
  0.019233
  0.016687
  0.017323
  0.019869
   0.01796
  0.016687
  0.017323
  0.019233
  0.018596
   0.01796
   0.01796
  0.027508
  0.026871
  0.026871
  0.027508
  0.027508
  0.026235
  0.027508
  0.028144
  0.027508
  0.026235
  0.027508
  0.028781
  0.024325
  0.018596
  0.018596
  0.025598
  0.020506
  0.018596
  0.019233
  0.019869
  0.018596
  0.025598
  0.018596
  0.019869
  0.018596
   0.01796
  0.009049
  0.009685
  0.008412
  0.017323
  0.009049
  0.009685
  0.009049
  0.007139
 -0.001772
 -0.000499
  0.000137
  0.007776
 -0.001136
  0.000137
 -0.010683
 -0.010683
 -0.010683
  0.000137
 -0.010683
 -0.011956
 -0.010683
  -0.00941
  -0.00941
  -0.01132
 -0.010047
 -0.010047
 -0.010047
 -0.010683
  -0.01132
 -0.010683
 -0.010683
 -0.010047
 -0.010683
 -0.010047
 -0.008774
 -0.010047
  -0.01132
 -0.010683
 -0.008774
 -0.010683
  -0.01132
 -0.010683
 -0.008774
 -0.010683
  -0.00941
  -0.01132
 -0.008774
  -0.00941
 -0.010047
 -0.010047
 -0.010683
 -0.010047
 -0.010683
 -0.011956
 -0.010683
  -0.00941
 -0.010047
 -0.010683
 -0.011956
 -0.010683
 -0.010683
 -0.010047
  -0.01132
 -0.010047
  -0.00941
 -0.010047
 -0.010683
 -0.010683
 -0.010683
  -0.00941
 -0.010683
 -0.010683
 -0.010683
 -0.008774
 -0.010047
 -0.010047
 -0.010683
 -0.010047
  -0.00941
 -0.010683
 -0.010047
  -0.01132
 -0.010683
 -0.008774
  -0.01132
 -0.010683
  -0.01132
 -0.010683
 -0.008774
 -0.010047
 -0.010683
  0.007139
 -0.018958
  0.000137
 -0.010683
 -0.003045
 -0.020868
  0.000137
 -0.021504
 -0.039963
   -0.0406
 -0.068606
 -0.048238
 -0.077517
 -0.049511
 -0.144988
 -0.088975
 -0.289477
 -0.115708
 -0.205457
 -0.145625
 -0.216278
 -0.174268
  -0.17936
  -0.17936
 -0.141169
 -0.184452
 -0.139259
 -0.175541
 -0.132894
 -0.216278
 -0.104888
 -0.114435
 -0.071152
  -0.09534
 -0.058422
 -0.105524
 -0.059058
 -0.059058
 -0.048874
 -0.047601
 -0.029142
 -0.010683
  -0.00941
  0.048513
  0.027508
  0.036419
  0.026871
  0.096251
  0.050422
   0.08734
  0.047876
  0.134442
  0.077156
  0.147809
  0.077156
  0.162449
  0.084157
  0.221008
  0.096888
  0.212734
  0.114074
  0.201913
  0.126167
  0.159903
  0.166904
  0.148445
   0.17136
  0.115983
   0.20064
  0.135079
  0.168177
  0.065062
   0.08543
  0.002683
 -0.020231
 -0.000499
 -0.020231
 -0.001136
 -0.020868
  0.007776
 -0.010047
  0.007139
  -0.01132
  0.009049
 -0.010683
  0.007776
  0.009049
  0.009685
  0.009685
  0.008412
  0.009049
  0.009685
  0.009685
  0.008412
  0.008412
  0.009049
  0.007776
  0.008412
  0.009049
  0.009049
  0.009049
  0.008412
  0.008412
  0.009685
  0.009049
  0.008412
  0.009049
  0.010322
  0.009049
  0.007776
  0.009049
  0.009685
  0.009049
  0.009685
  0.009685
  0.009049
  0.009685
  0.008412
  0.008412
  0.009049
  0.008412
  0.008412
  0.009049
  0.009685
  0.009049
  0.007776
  0.009049
  0.009685
  0.007776
  0.007139
  0.007139
  0.010322
  0.009685
  0.009685
  0.008412
  0.008412
  0.009685
  0.009049
  0.009685
  0.007776
  0.009685
  0.009049
  0.009049
  0.009049
  0.007776
  0.009049
  0.010322
  0.008412
  0.009049
  0.009049
  0.008412
  0.009049
  0.009685
  0.008412
  0.007776
  0.007776
  0.009049
  0.009685
  0.009049
  0.010958
  0.007776
  0.009049
  0.009049
  0.009049
  0.009049
  0.009049
  0.010322
  0.009049
  0.009049
  0.007776
  0.009049
  0.010322
  0.009049
  0.007776
  0.008412
  0.009685
 -0.001772
  0.007776
  0.007776
  0.007776
  0.010322
  0.007776
 -0.001772
  0.007776
 -0.000499
  0.007776
  0.006503
  0.007139
  0.003957
  0.003957
  0.004593
  0.000137
  0.005866
 -0.000499
  0.007139
  0.006503
  0.008412
   0.00141
  0.007139
 -0.010683
  0.007139
 -0.001136
  0.007139
 -0.000499
  0.008412
 -0.002409
  0.008412
 -0.000499
  0.006503
 -0.003045
  0.007776
  0.000137
  0.010322
 -0.010683
  0.000774
 -0.010047
  0.009685
 -0.000499
  0.007139
 -0.000499
  0.009049
 -0.001136
  0.007776
 -0.001772
  0.009049
 -0.000499
  0.007139
 -0.010683
  0.009049
 -0.000499
  0.008412
  0.009049
   0.00332
  0.006503
 -0.000499
  0.007139
  0.000774
  0.007139
 -0.001136
  0.008412
  0.007139
  0.009049
 -0.000499
  0.009049
 -0.001136
  0.008412
  0.009049
  0.007139
  0.007139
  0.009049
 -0.000499
  0.008412
  0.007139
  0.008412
  0.009049
  0.008412
  0.008412
  0.008412
  0.008412
  0.009049
  0.008412
  0.007776
  0.007139
  0.009049
  0.018596
  0.009049
  0.008412
  0.008412
  0.009685
  0.007776
  0.009049
   0.00332
  0.009685
  0.010322
  0.009685
  0.017323
  0.009049
  0.008412
  0.009049
  0.007776
 -0.000499
  0.008412
  0.007776
  0.006503
 -0.000499
  0.008412
 -0.001772
  0.007139
  0.009049
  0.010322
 -0.001772
  0.007139
 -0.001136
 -0.001136
 -0.001136
  0.007776
 -0.000499
  0.009685
 -0.001136
 -0.001136
 -0.000499
  0.009049
 -0.000499
  0.007139
 -0.001136
 -0.000499
 -0.001136
  0.007776
 -0.000499
 -0.000499
 -0.002409
  0.009049
 -0.000499
 -0.004955
 -0.006228
 -0.008137
 -0.003045
 -0.001772
 -0.001772
 -0.008774
 -0.010683
 -0.011956
 -0.001136
  -0.00941
 -0.010683
 -0.010683
 -0.010683
  -0.00941
 -0.010683
 -0.020231
 -0.020231
 -0.020231
 -0.019595
 -0.019595
 -0.020231
 -0.020868
 -0.010047
  -0.01132
 -0.010047
 -0.010683
  -0.01132
  -0.01132
  -0.00941
  -0.00941
 -0.010683
  -0.01132
 -0.011956
  -0.01132
   0.00141
 -0.010683
 -0.010683
  -0.01132
 -0.010683
 -0.010047
  -0.00941
 -0.010683
 -0.010047
  -0.01132
 -0.010683
  -0.00941
 -0.008774
 -0.010683
  -0.01132
  -0.01132
 -0.010683
 -0.008774
 -0.008774
 -0.010047
 -0.011956
 -0.010683
 -0.010047
 -0.008774
 -0.010683
 -0.010047
  -0.01132
 -0.010683
 -0.010683
 -0.010047
  -0.00941
 -0.010047
  -0.01132
 -0.011956
 -0.010683
 -0.010047
 -0.010683
 -0.010047
 -0.010683
 -0.010683
 -0.010683
 -0.010047
 -0.010047
 -0.010047
  -0.01132
 -0.010683
 -0.010047
 -0.010683
  -0.01132
 -0.010047
 -0.010683
  -0.00941
 -0.010683
 -0.010683
 -0.010683
  -0.00941
 -0.010047
 -0.010683
 -0.010047
 -0.008774
 -0.010047
 -0.010047
 -0.010683
 -0.010047
 -0.010683
  -0.01132
 -0.010683
 -0.010047
 -0.010683
  -0.01132
  -0.01132
  -0.00941
 -0.010047
  -0.01132
 -0.010047
  -0.00941
  -0.00941
 -0.010683
 -0.010047
 -0.010683
  -0.00941
 -0.010047
 -0.010683
  -0.00941
  -0.00941
 -0.010683
 -0.010683
 -0.010683
 -0.010047
 -0.010683
  -0.01132
 -0.010047
 -0.010047
  -0.01132
 -0.010683
 -0.008774
 -0.010047
 -0.010683
 -0.010683
 -0.008774
  -0.00941
 -0.010047
 -0.010683
  -0.00941
 -0.010047
  -0.00941
 -0.010683
 -0.010683
  -0.00941
 -0.010683
 -0.010683
  -0.01132
 -0.010683
 -0.010047
  -0.01132
 -0.010047
 -0.010683
 -0.010683
 -0.010047
  -0.00941
 -0.010047
 -0.010683
  -0.00941
 -0.008774
 -0.010683
  -0.01132
 -0.010683
 -0.010683
 -0.010047
 -0.010047
  -0.01132
 -0.010047
  -0.00941
 -0.010047
  -0.01132
 -0.010683
 -0.010047
 -0.010047
 -0.010683
  -0.00941
 -0.010047
 -0.010047
  -0.01132
  -0.01132
  -0.00941
  -0.00941
 -0.010047
 -0.010683
 -0.010047
  -0.00941
  -0.00941
  -0.01132
 -0.010683
 -0.008774
 -0.010683
  -0.01132
 -0.010683
 -0.008774
 -0.010683
  -0.01132
 -0.010683
  -0.00941
 -0.010683
 -0.010047
 -0.011956
  -0.01132
 -0.010047
 -0.010683
  -0.01132
 -0.010683
 -0.010683
  -0.00941
  -0.01132
 -0.011956
 -0.010683
  -0.00941
 -0.010683
 -0.010683
 -0.010047
  -0.00941
 -0.008774
  -0.01132
 -0.010683
  -0.00941
 -0.008774
 -0.011956
 -0.010047
  -0.00941
  -0.00941
  -0.01132
 -0.010683
  -0.00941
 -0.010683
  -0.01132
 -0.010683
 -0.008774
 -0.010683
 -0.010683
 -0.010047
 -0.008774
 -0.010047
  -0.01132
 -0.010683
  -0.00941
 -0.010683
  -0.01132
 -0.010683
 -0.010683
 -0.010683
 -0.010683
  -0.01132
  -0.00941
 -0.010047
 -0.010683
 -0.010683
 -0.010047
 -0.010683
 -0.010683
 -0.010683
 -0.008774
 -0.010683
 -0.010683
 -0.010047
 -0.010047
  -0.01132
 -0.010683
 -0.010047
 -0.010047
 -0.011956
  -0.00941
  -0.00941
 -0.010683
  -0.00941
  -0.00941
 -0.010047
 -0.010047
 -0.010683
 -0.010683
 -0.010047
  -0.00941
 -0.010683
 -0.008774
 -0.010047
 -0.008774
 -0.010683
 -0.011956
  -0.01132
 -0.010047
 -0.010683
 -0.011956
  -0.00941
 -0.010047
 -0.010047
  -0.01132
 -0.010683
  -0.00941
  -0.00941
 -0.010683
 -0.010047
 -0.010047
 -0.010047
 -0.010683
 -0.010047
 -0.010047
 -0.010047
  -0.01132
 -0.010047
  -0.00941
  -0.00941
  -0.01132
 -0.010683
  -0.01132
  -0.01132
 -0.010683
 -0.010683
 -0.010683
 -0.011956
 -0.010047
 -0.008774
  -0.01132
 -0.010047
 -0.010047
 -0.010047
 -0.010047
 -0.010683
 -0.008774
 -0.010047
 -0.010683
 -0.010683
 -0.010047
 -0.010047
  -0.01132
 -0.010683
 -0.010047
 -0.010047
 -0.010047
 -0.008774
 -0.010683
 -0.011956
 -0.017048
 -0.013866
 -0.015139
 -0.010683
 -0.010047
 -0.018958
 -0.013229
 -0.010683
 -0.001772
 -0.010683
  0.007139
  0.009685
  0.008412
 -0.001136
  0.008412
  0.009049
  0.017323
  0.017323
  0.018596
  0.008412
  0.019233
  0.017323
  0.018596
  0.019869
  0.018596
  0.017323
  0.017323
  0.018596
  0.016687
   0.01796
  0.019233
   0.01796
  0.016687
  0.017323
  0.019869
  0.028781
  0.027508
  0.026871
  0.029417
  0.027508
  0.027508
  0.027508
  0.029417
  0.028144
  0.026871
  0.027508
  0.028781
  0.019233
  0.016687
  0.017323
  0.028781
  0.018596
  0.017323
   0.01796
  0.019233
  0.019233
  0.026235
  0.019869
   0.01796
  0.017323
   0.01796
  0.009049
  0.008412
  0.008412
  0.019233
  0.009049
  0.007776
  0.009049
  0.009049
 -0.000499
 -0.001136
 -0.000499
  0.009685
 -0.000499
 -0.001772
 -0.010683
  -0.00941
  -0.01132
 -0.001772
  -0.00941
 -0.010047
  -0.01132
 -0.010683
 -0.010683
 -0.008774
 -0.010683
 -0.010683
 -0.010047
 -0.010047
  -0.01132
  -0.01132
 -0.010683
 -0.010047
 -0.008774
 -0.010683
 -0.010683
 -0.010047
  -0.00941
 -0.010683
 -0.010047
 -0.010683
  -0.00941
  -0.01132
 -0.010683
  -0.00941
 -0.010047
  -0.01132
 -0.010683
  -0.00941
 -0.010047
  -0.01132
 -0.010683
 -0.008774
  -0.00941
 -0.010683
 -0.010047
  -0.00941
 -0.010047
 -0.010683
 -0.010047
  -0.00941
 -0.010683
 -0.010683
 -0.010047
  -0.00941
 -0.010047
  -0.01132
 -0.010683
 -0.010047
 -0.010683
 -0.010683
 -0.010047
 -0.010047
 -0.010683
 -0.010683
 -0.010047
 -0.010683
 -0.010683
 -0.010683
  -0.00941
 -0.010683
  -0.01132
 -0.008774
 -0.010047
  -0.01132
 -0.010047
  -0.00941
 -0.010683
 -0.010683
  -0.00941
  -0.00941
 -0.010683
  0.007139
 -0.020231
 -0.001136
  -0.01132
 -0.002409
 -0.018958
 -0.000499
 -0.021504
 -0.041236
 -0.039963
 -0.068606
 -0.050147
 -0.076881
 -0.047601
 -0.136077
 -0.163447
 -0.201638
 -0.169812
 -0.163447
 -0.215005
 -0.161537
 -0.213732
 -0.147534
 -0.199092
 -0.121437
 -0.199092
 -0.130348
 -0.181906
 -0.127166
 -0.222006
 -0.100432
 -0.115708
 -0.066697
 -0.097886
 -0.057785
 -0.105524
 -0.057785
 -0.059695
 -0.048238
 -0.048238
 -0.029142
 -0.010683
 -0.010683
  0.048513
  0.028144
  0.037055
  0.027508
  0.096251
  0.046603
  0.088613
  0.047876
  0.135715
  0.075246
  0.147172
  0.077792
  0.163085
   0.11662
   0.17136
  0.157993
  0.147809
  0.178998
  0.126167
  0.177725
  0.121712
  0.202549
  0.123621
  0.187909
  0.096888
  0.216553
  0.128077
  0.170724
  0.057424
  0.086067
 -0.000499
 -0.021504
 -0.000499
 -0.018958
 -0.000499
 -0.021504
  0.008412
 -0.010683
  0.009049
 -0.010047
  0.009685
  -0.01132
  0.007139
  0.009049
  0.009049
  0.008412
  0.009685
  0.009049
  0.009049
  0.007776
  0.009049
  0.009685
  0.008412
  0.009049
  0.010322
  0.009685
  0.009049
  0.009685
  0.009049
  0.009049
  0.007776
  0.009685
  0.010322
  0.009049
  0.009049
  0.008412
  0.010322
  0.008412
  0.008412
  0.009049
  0.009685
  0.009049
  0.007776
  0.009049
  0.009685
  0.009685
  0.009049
  0.008412
  0.009049
  0.009685
  0.009049
  0.007776
  0.009049
  0.010322
  0.009049
  0.007776
  0.009049
  0.008412
  0.009049
  0.007139
  0.009049
  0.008412
  0.009049
  0.009049
  0.007776
  0.009049
  0.010322
  0.009049
  0.007776
  0.009049
  0.009049
  0.009685
  0.007776
  0.008412
  0.009685
  0.009049
  0.009685
  0.009685
  0.009685
  0.009049
  0.009049
  0.009049
  0.009685
  0.007776
  0.009685
  0.009685
  0.009049
  0.007139
  0.009049
  0.009685
  0.009049
  0.007776
  0.008412
  0.009049
  0.007776
  0.007776
  0.009049
  0.009049
  0.009049
  0.008412
  0.009049
  0.009049
  0.008412
 -0.003045
  0.007139
  0.009049
  0.008412
  0.007139
  0.006503
   0.00332
  0.002683
   0.00332
  0.008412
  0.009049
  0.000137
   0.00523
 -0.000499
  0.008412
 -0.001136
  0.007139
 -0.000499
  0.009049
  0.007776
  0.008412
 -0.001136
  0.009685
 -0.010683
  0.007776
 -0.001136
  0.009049
 -0.001772
  0.008412
 -0.001772
  0.009049
 -0.001136
  0.006503
 -0.002409
  0.009049
 -0.000499
  0.009685
  -0.00941
 -0.000499
  -0.01132
  0.008412
  0.000137
  0.009049
 -0.002409
  0.008412
  0.000137
  0.009049
 -0.000499
  0.003957
   0.00523
 -0.003045
  0.002047
  0.000774
  0.007139
  0.007776
  0.007139
 -0.000499
  0.008412
 -0.000499
  0.007139
 -0.000499
  0.009049
 -0.000499
  0.007776
  0.008412
  0.009049
 -0.000499
  0.008412
  0.009685
  0.009685
 -0.002409
  0.009049
  0.009049
  0.007776
  0.008412
  0.007139
 -0.000499
  0.009049
  0.008412
  0.008412
  0.009685
  0.007776
  0.007139
  0.008412
  0.009049
  0.010322
  0.007776
  0.008412
  0.008412
  0.011595
  0.014777
  0.007776
  0.008412
  0.009049
  0.007776
  0.007139
 -0.000499
  0.009685
  0.009049
  0.008412
  0.008412
  0.019233
  0.009049
  0.007139
  0.009049
  0.009049
 -0.001136
  0.007776
  0.007776
  0.009049
 -0.001136
  0.007139
 -0.000499
  0.009049
  0.007776
  0.008412
 -0.000499
  0.009049
 -0.003045
 -0.002409
 -0.000499
  0.009049
 -0.002409
  0.008412
 -0.000499
 -0.002409
 -0.000499
  0.010322
  0.000137
  0.007776
 -0.001772
 -0.000499
  0.002683
  0.002683
 -0.000499
 -0.000499
  0.007139
 -0.000499
 -0.000499
  -0.00941
 -0.000499
 -0.010683
 -0.001136
 -0.000499
 -0.001772
  -0.01132
 -0.010683
 -0.010047
 -0.000499
  -0.01132
  -0.01132
 -0.010047
 -0.010683
  -0.01132
  -0.01132
 -0.020231
 -0.020868
 -0.020868
 -0.020231
 -0.020231
 -0.019595
 -0.020231
  -0.01132
 -0.010683
 -0.010683
 -0.010683
 -0.010683
  -0.00941
 -0.008774
 -0.010683
 -0.011956
 -0.010683
 -0.010047
 -0.006228
 -0.005591
 -0.010683
  -0.00941
 -0.010047
  -0.01132
 -0.010683
 -0.008774
 -0.010683
  -0.01132
 -0.008774
  -0.00941
  -0.00941
 -0.011956
  -0.00941
 -0.010047
 -0.010047
 -0.011956
  -0.01132
 -0.010047
 -0.010047
  -0.01132
 -0.010683
 -0.010047
 -0.010047
 -0.010047
  -0.01132
 -0.010683
 -0.010047
 -0.008774
  -0.01132
  -0.01132
 -0.010047
 -0.010047
 -0.010683
 -0.010683
 -0.010683
 -0.010047
 -0.008774
  -0.00941
  -0.01132
 -0.010047
 -0.010047
 -0.010683
  -0.01132
  -0.00941
 -0.008774
  -0.01132
 -0.010683
  -0.00941
 -0.010683
 -0.010683
 -0.010683
 -0.008774
  -0.00941
  -0.01132
 -0.010683
 -0.010047
 -0.010047
  -0.01132
  -0.00941
 -0.010047
  -0.00941
  -0.01132
 -0.010683
 -0.008137
 -0.010047
 -0.010683
 -0.010683
 -0.008774
 -0.010683
 -0.010683
 -0.010683
 -0.008774
 -0.010683
  -0.01132
 -0.010683
 -0.010047
 -0.010047
  -0.01132
  -0.00941
 -0.010047
 -0.010047
  -0.01132
 -0.010683
  -0.00941
 -0.010683
 -0.010683
 -0.008774
 -0.010047
  -0.00941
 -0.010683
  -0.00941
 -0.010047
 -0.010047
 -0.010683
 -0.010683
 -0.010683
 -0.008774
 -0.010683
 -0.010683
 -0.010683
 -0.010047
 -0.010047
 -0.010683
 -0.010683
  -0.01132
  -0.00941
 -0.010683
 -0.012593
 -0.010683
  -0.00941
 -0.010683
 -0.010683
  -0.00941
 -0.010683
 -0.010683
 -0.010683
 -0.010047
 -0.010047
 -0.010683
  -0.01132
 -0.008774
 -0.010047
 -0.010683
 -0.010047
  -0.00941
 -0.010047
  -0.01132
  -0.00941
 -0.010683
 -0.010047
  -0.01132
 -0.010683
  -0.00941
 -0.010683
  -0.01132
  -0.01132
 -0.010683
  -0.01132
 -0.010683
 -0.010047
 -0.010683
  -0.00941
 -0.011956
  -0.00941
 -0.010047
  -0.01132
 -0.010683
 -0.008774
 -0.010683
 -0.010047
 -0.010047
 -0.011956
  -0.01132
  -0.00941
 -0.008774
 -0.010683
  -0.01132
 -0.008774
 -0.010683
 -0.010047
 -0.010683
  -0.01132
 -0.010047
  -0.01132
 -0.010683
 -0.010047
 -0.008774
 -0.010683
 -0.010683
  -0.00941
 -0.010683
 -0.010683
 -0.010683
 -0.010047
 -0.010683
 -0.010047
  -0.00941
 -0.010047
  -0.01132
 -0.010683
 -0.010047
 -0.010047
 -0.010683
 -0.010683
  -0.00941
 -0.010683
  -0.01132
 -0.010683
 -0.008774
 -0.010683
 -0.010683
 -0.010683
 -0.010047
 -0.010047
 -0.010683
 -0.010047
 -0.010047
  -0.01132
 -0.010683
 -0.010047
 -0.010683
 -0.011956
 -0.010047
 -0.010047
 -0.010683
 -0.010683
 -0.010683
 -0.010047
 -0.010683
  -0.01132
 -0.010683
  -0.00941
 -0.010683
 -0.011956
 -0.010683
  -0.00941
 -0.010047
 -0.010683
 -0.010683
 -0.010047
 -0.010047
  -0.01132
  -0.00941
 -0.010683
 -0.010047
 -0.011956
 -0.010683
  -0.00941
  -0.00941
 -0.010683
 -0.010047
  -0.00941
 -0.010683
 -0.010683
 -0.010047
 -0.010683
 -0.010683
  -0.00941
 -0.010047
 -0.010683
 -0.010683
 -0.010047
  -0.01132
 -0.010047
 -0.008774
 -0.010683
  -0.01132
 -0.010683
  -0.00941
 -0.010047
 -0.010683
 -0.008774
 -0.010047
  -0.01132
 -0.010047
 -0.010047
 -0.010683
  -0.01132
 -0.010047
 -0.010683
 -0.010047
 -0.010047
 -0.010683
  -0.01132
 -0.010683
  -0.00941
 -0.010047
 -0.010047
  -0.01132
 -0.010047
 -0.010047
  -0.00941
 -0.010683
 -0.010683
 -0.010683
 -0.010683
 -0.010047
 -0.010047
  -0.01132
  -0.01132
 -0.010047
 -0.010047
 -0.010047
  -0.00941
  -0.01132
  -0.01132
 -0.010047
 -0.008774
  -0.00941
  -0.01132
 -0.010683
 -0.010047
  -0.00941
 -0.010683
 -0.013229
 -0.010683
  -0.01132
  -0.00941
  -0.00941
 -0.020868
  -0.01132
 -0.019595
 -0.010047
  -0.00941
 -0.010683
 -0.020868
  -0.01132
  -0.00941
 -0.000499
 -0.010683
  0.009049
  0.008412
  0.008412
 -0.001772
  0.007776
  0.008412
  0.017323
   0.01605
  0.018596
  0.007139
  0.018596
  0.019233
  0.019233
  0.018596
  0.019233
  0.018596
  0.019233
  0.018596
  0.016687
  0.018596
  0.019869
  0.019233
  0.019233
  0.017323
  0.024325
  0.026871
  0.027508
  0.027508
  0.026871
  0.026871
  0.028781
  0.028781
  0.028781
  0.028144
  0.027508
  0.027508
  0.027508
  0.019233
   0.01796
  0.017323
  0.028144
  0.019233
  0.018596
   0.01796
  0.019233
  0.019869
  0.028781
  0.018596
  0.017323
  0.018596
   0.01796
  0.008412
  0.007776
  0.006503
  0.018596
  0.009049
  0.009685
  0.008412
  0.007776
 -0.001136
  0.000774
 -0.001136
  0.008412
 -0.000499
 -0.004955
 -0.010047
 -0.010683
 -0.002409
  -0.00941
 -0.010047
 -0.010683
 -0.010047
  -0.00941
 -0.010683
 -0.010683
 -0.010683
 -0.008774
 -0.010047
 -0.010683
 -0.010683
 -0.008774
  -0.00941
 -0.010683
 -0.010683
 -0.010683
 -0.010683
 -0.010047
 -0.010047
  -0.01132
 -0.010683
  -0.00941
 -0.010047
 -0.010683
 -0.010683
  -0.01132
  -0.00941
 -0.010047
 -0.010683
 -0.010047
  -0.01132
 -0.010683
 -0.010683
 -0.010683
 -0.010047
 -0.010047
 -0.010683
 -0.010683
 -0.010047
 -0.008774
  -0.00941
  -0.01132
  -0.01132
 -0.010047
 -0.010047
 -0.010047
 -0.011956
 -0.010683
  -0.00941
  -0.00941
  -0.01132
  -0.00941
 -0.008774
 -0.010047
  -0.01132
 -0.010047
 -0.008774
 -0.010047
 -0.010047
 -0.010683
 -0.008137
 -0.010047
  -0.01132
 -0.008774
 -0.010683
 -0.010683
  -0.00941
 -0.008774
 -0.010683
  -0.01132
 -0.010047
  0.008412
 -0.019595
 -0.001136
  -0.01132
 -0.000499
 -0.020868
 -0.006228
 -0.027869
 -0.039327
 -0.057785
 -0.053966
 -0.069879
 -0.052057
 -0.132894
 -0.094703
 -0.275474
 -0.125893
 -0.201001
 -0.148807
 -0.230281
 -0.147534
 -0.222643
 -0.139259
 -0.201638
 -0.116981
 -0.203547
 -0.126529
 -0.182542
 -0.125893
 -0.223916
 -0.097886
 -0.115072
 -0.069879
 -0.097249
 -0.057149
 -0.106797
 -0.059695
 -0.057149
 -0.047601
 -0.049511
 -0.029142
 -0.008774
 -0.008774
  0.046603
  0.026871
  0.037055
  0.028781
  0.096251
  0.054878
  0.071427
  0.096888
  0.098161
  0.126167
  0.091796
  0.149719
  0.097524
  0.207641
  0.103889
  0.204459
  0.120439
  0.200003
  0.106435
  0.189182
   0.11662
  0.212097
   0.11471
  0.191092
  0.096251
  0.218462
  0.124258
  0.172633
  0.056151
   0.08543
 -0.001772
 -0.019595
 -0.000499
 -0.020868
 -0.000499
 -0.018958
  0.006503
  -0.01132
  0.009049
 -0.010683
  0.007139
 -0.010683
  0.009685
  0.009049
  0.007776
  0.009049
  0.010322
  0.009049
  0.009049
  0.009049
  0.009685
  0.009685
  0.008412
  0.009049
  0.009049
  0.009049
  0.007776
  0.009049
  0.009685
  0.007139
  0.009049
  0.009685
  0.009685
  0.008412
  0.007776
  0.008412
  0.009049
  0.009049
  0.007776
  0.009049
  0.009049
  0.009049
  0.009049
  0.007776
  0.008412
  0.008412
  0.009049
  0.008412
  0.009049
  0.009685
  0.008412
  0.007776
  0.009049
  0.009049
  0.009049
  0.010322
  0.008412
  0.009049
  0.009685
  0.009049
  0.007776
  0.009049
  0.009685
  0.009049
  0.007776
  0.009049
  0.010322
  0.009049
  0.008412
  0.008412
  0.010322
  0.009049
  0.010322
  0.007776
  0.009685
  0.009685
  0.008412
  0.008412
  0.008412
  0.010322
  0.009049
  0.007776
  0.008412
  0.010322
  0.009049
  0.007776
  0.009049
  0.009049
  0.009685
  0.008412
  0.009049
  0.009049
  0.008412
  0.008412
  0.008412
  0.008412
  0.009685
  0.009685
  0.007776
  0.008412
  0.009685
  0.009049
  0.002047
   0.00523
  0.009049
  0.007776
  0.006503
  0.007776
  0.000137
  0.007776
 -0.003045
  0.007139
  0.007776
  0.007776
 -0.001136
  0.008412
  0.000137
  0.009049
 -0.001136
  0.007139
 -0.001136
  0.010322
  0.009049
  0.007776
 -0.000499
  0.009685
  -0.01132
  0.007776
 -0.001772
  0.009049
 -0.001136
  0.006503
 -0.000499
  0.009685
 -0.002409
  0.007139
 -0.001136
  0.007139
 -0.000499
  0.009685
 -0.010047
 -0.001136
 -0.007501
  0.004593
  0.003957
  0.002047
  0.003957
  0.000137
  0.007139
 -0.000499
  0.006503
 -0.000499
  0.009049
 -0.010683
  0.007139
 -0.000499
  0.008412
  0.007139
  0.008412
 -0.000499
  0.009049
 -0.001136
  0.008412
 -0.001136
  0.008412
 -0.003682
  0.008412
  0.008412
  0.007139
 -0.001772
  0.009685
 -0.000499
  0.007776
  0.009685
  0.009049
  0.009685
  0.009685
  0.000137
  0.008412
  0.008412
  0.009049
  0.009049
  0.008412
  0.007139
  0.008412
  0.008412
  0.009049
  0.009049
  0.008412
  0.009049
  0.017323
  0.009049
  0.007139
  0.008412
  0.009049
  0.009049
  0.007776
 -0.001136
  0.008412
  0.009049
  0.009685
  0.009049
  0.016687
  0.007139
  0.008412
  0.008412
  0.009049
 -0.001772
  0.008412
  0.008412
  0.009049
 -0.001136
  0.007776
 -0.001772
  0.010322
  0.008412
  0.008412
 -0.000499
  0.008412
  0.000137
 -0.001136
 -0.002409
  0.007776
 -0.000499
  0.009049
 -0.000499
 -0.001772
  0.003957
  0.003957
  0.007139
  0.000137
 -0.002409
 -0.001772
  0.007776
 -0.000499
 -0.001772
 -0.000499
  0.008412
  0.000137
 -0.002409
 -0.010683
 -0.000499
 -0.010683
 -0.001772
 -0.001136
 -0.001136
 -0.011956
  -0.01132
  -0.00941
 -0.000499
 -0.011956
 -0.010683
 -0.010047
 -0.010047
 -0.011956
  -0.00941
 -0.019595
 -0.021504
 -0.020231
 -0.019595
 -0.020868
 -0.022141
 -0.020868
 -0.010683
 -0.010683
 -0.011956
 -0.010683
 -0.010047
 -0.010683
 -0.011956
 -0.010683
 -0.010047
 -0.010683
  -0.01132
 -0.001772
 -0.008774
  -0.00941
 -0.010683
  -0.00941
  -0.00941
 -0.008774
 -0.010683
 -0.010047
 -0.008774
 -0.010683
  -0.01132
 -0.010683
 -0.010683
 -0.010047
 -0.010047
 -0.010047
 -0.010683
  -0.01132
  -0.01132
 -0.008774
 -0.010047
 -0.010683
 -0.010683
  -0.00941
 -0.010683
  -0.01132
 -0.010047
 -0.010047
  -0.01132
 -0.010683
  -0.00941
 -0.010047
 -0.010683
 -0.010047
 -0.008774
 -0.010683
  -0.01132
 -0.010683
 -0.010047
 -0.010683
  -0.01132
 -0.010683
 -0.010047
 -0.010683
 -0.010683
 -0.008774
 -0.010683
  -0.01132
 -0.010683
 -0.010047
  -0.01132
 -0.010683
 -0.008774
  -0.00941
 -0.010047
 -0.010047
 -0.008774
 -0.010047
 -0.010683
 -0.010683
 -0.010047
 -0.010683
 -0.010047
 -0.010683
 -0.010683
 -0.010683
 -0.010683
  -0.00941
 -0.010683
  -0.01132
 -0.010047
  -0.00941
 -0.010047
 -0.010047
  -0.01132
 -0.008774
 -0.008137
  -0.01132
  -0.01132
 -0.010683
 -0.008774
 -0.010683
  -0.01132
 -0.010683
 -0.008774
 -0.008774
  -0.01132
  -0.00941
  -0.00941
  -0.01132
 -0.011956
 -0.010683
  -0.00941
 -0.010047
 -0.010683
 -0.010683
  -0.00941
 -0.010683
  -0.01132
 -0.010047
  -0.00941
 -0.010683
 -0.010683
 -0.008774
 -0.010683
 -0.010683
 -0.010683
 -0.010047
  -0.01132
 -0.010683
 -0.010047
 -0.010047
 -0.010683
 -0.010047
 -0.008774
 -0.010047
  -0.01132
 -0.010047
 -0.010047
  -0.01132
 -0.010683
  -0.00941
 -0.010047
  -0.01132
 -0.010683
 -0.010683
  -0.01132
  -0.01132
 -0.008774
 -0.010683
  -0.01132
 -0.010047
  -0.00941
 -0.010047
 -0.011956
 -0.010683
 -0.008774
 -0.010047
  -0.01132
 -0.010683
 -0.010683
 -0.010683
  -0.01132
 -0.008774
 -0.010683
 -0.010683
 -0.010683
  -0.00941
 -0.010047
  -0.01132
  -0.00941
 -0.010683
  -0.01132
 -0.010047
 -0.008774
 -0.010683
 -0.010683
 -0.010683
 -0.008774
 -0.010047
 -0.010683
 -0.010683
 -0.010047
  -0.00941
 -0.010683
 -0.010047
 -0.010047
 -0.010047
 -0.011956
  -0.00941
 -0.010683
  -0.01132
 -0.010683
 -0.010047
 -0.010683
 -0.010683
 -0.010683
 -0.008774
 -0.010047
 -0.010683
 -0.010683
  -0.00941
 -0.010683
  -0.01132
 -0.010683
  -0.01132
  -0.01132
 -0.010683
 -0.010047
 -0.010047
 -0.011956
 -0.008774
  -0.00941
  -0.01132
 -0.010683
  -0.00941
 -0.010047
 -0.010047
 -0.010683
 -0.010683
  -0.00941
 -0.010683
 -0.010683
 -0.010047
  -0.00941
 -0.010047
 -0.010683
 -0.010683
 -0.008774
 -0.010047
  -0.01132
 -0.010047
 -0.010047
 -0.010047
  -0.00941
 -0.008774
 -0.010683
 -0.010047
 -0.010683
 -0.010047
 -0.010047
 -0.010683
  -0.00941
  -0.00941
 -0.010683
  -0.01132
 -0.010683
 -0.008774
 -0.010683
 -0.011956
 -0.010683
 -0.008774
 -0.010047
  -0.01132
 -0.010683
 -0.010683
 -0.008137
 -0.010683
 -0.010047
 -0.010683
 -0.010047
 -0.010683
 -0.010683
 -0.002699
 -0.007792
 -0.005246
 -0.012886
 -0.007792
 -0.002699
 -0.007792
 -0.010339
 -0.002699
 -0.005246
 -0.010339
 -0.007792
 -0.002699
 -0.005246
 -0.012886
 -0.005246
 -0.002699
 -0.005246
 -0.005246
 -0.012886
 -0.012886
 -0.002699
 -0.007792
 -0.012886
 -0.012886
 -0.002699
 -0.010339
 -0.012886
 -0.005246
 -0.002699
 -0.012886
 -0.010339
 -0.012886
 -0.007792
 -0.005246
 -0.010339
 -0.007792
 -0.000152
 -0.007792
 -0.012886
 -0.012886
 -0.005246
 -0.002699
 -0.010339
 -0.012886
 -0.005246
 -0.005246
 -0.005246
 -0.012886
 -0.007792
 -0.005246
 -0.002699
 -0.005246
 -0.012886
 -0.010339
 -0.002699
 -0.007792
 -0.015432
 -0.007792
 -0.002699
 -0.007792
 -0.012886
 -0.012886
 -0.000152
 -0.010339
 -0.005246
 -0.005246
 -0.002699
 -0.005246
 -0.010339
 -0.012886
 -0.010339
 -0.002699
 -0.007792
 -0.015432
 -0.007792
 -0.005246
 -0.005246
 -0.012886
 -0.005246
 -0.002699
 -0.007792
 -0.012886
 -0.007792
 -0.002699
 -0.007792
 -0.012886
 -0.010339
 -0.002699
 -0.010339
 -0.010339
 -0.012886
 -0.007792
 -0.005246
 -0.005246
 -0.012886
 -0.005246
 -0.002699
 -0.010339
 -0.012886
 -0.007792
 -0.000152
  0.002395
 -0.007792
 -0.012886
 -0.007792
 -0.002699
 -0.007792
 -0.012886
 -0.005246
 -0.002699
 -0.010339
 -0.012886
 -0.010339
 -0.002699
 -0.007792
 -0.012886
 -0.005246
 -0.002699
 -0.005246
 -0.012886
 -0.007792
 -0.002699
 -0.005246
 -0.007792
 -0.012886
 -0.005246
 -0.010339
 -0.005246
 -0.010339
 -0.012886
 -0.005246
 -0.002699
 -0.002699
 -0.005246
 -0.015432
 -0.010339
 -0.002699
 -0.007792
 -0.012886
 -0.007792
 -0.000152
 -0.007792
 -0.010339
 -0.012886
 -0.007792
 -0.007792
 -0.005246
 -0.010339
 -0.005246
  0.002395
 -0.010339
 -0.005246
 -0.010339
 -0.007792
 -0.000152
  0.002395
 -0.015432
 -0.005246
 -0.005246
 -0.005246
 -0.010339
 -0.012886
 -0.012886
 -0.007792
 -0.002699
 -0.005246
 -0.007792
 -0.015432
 -0.007792
 -0.005246
 -0.007792
 -0.012886
 -0.007792
 -0.002699
 -0.002699
 -0.010339
 -0.012886
 -0.007792
  0.002395
 -0.010339
 -0.010339
 -0.010339
 -0.002699
 -0.010339
 -0.012886
 -0.010339
 -0.000152
 -0.002699
 -0.010339
 -0.010339
 -0.007792
 -0.002699
 -0.010339
 -0.012886
 -0.007792
 -0.000152
 -0.007792
 -0.012886
 -0.010339
 -0.002699
 -0.010339
 -0.012886
 -0.005246
 -0.002699
 -0.005246
 -0.005246
 -0.015432
 -0.007792
 -0.005246
 -0.000152
 -0.012886
 -0.012886
 -0.007792
 -0.002699
 -0.010339
 -0.012886
 -0.010339
 -0.007792
 -0.000152
 -0.007792
 -0.012886
 -0.007792
 -0.000152
 -0.010339
 -0.012886
 -0.007792
 -0.002699
 -0.002699
 -0.012886
 -0.012886
 -0.005246
 -0.000152
 -0.007792
 -0.012886
 -0.015432
 -0.005246
 -0.002699
 -0.007792
 -0.012886
 -0.010339
 -0.007792
 -0.007792
 -0.010339
 -0.005246
 -0.002699
 -0.007792
 -0.010339
 -0.005246
 -0.002699
 -0.005246
 -0.012886
 -0.012886
 -0.010339
 -0.002699
 -0.005246
 -0.012886
 -0.005246
  0.007488
  0.002395
  0.007488
  0.004941
  0.010035
  0.015128
  0.025315
  0.022768
  0.022768
  0.025315
  0.032955
  0.030408
  0.027862
  0.027862
  0.043142
  0.048235
  0.043142
  0.035502
  0.040595
  0.043142
  0.053329
  0.055875
  0.043142
  0.053329
  0.050782
  0.050782
  0.045688
  0.053329
  0.053329
  0.050782
  0.045688
  0.050782
  0.053329
  0.050782
  0.045688
  0.038048
  0.045688
  0.043142
  0.038048
  0.043142
  0.043142
  0.048235
  0.043142
  0.038048
  0.040595
  0.048235
  0.043142
  0.038048
  0.043142
  0.048235
  0.043142
  0.025315
  0.030408
  0.038048
  0.030408
  0.025315
  0.032955
  0.027862
  0.025315
  0.017675
  0.022768
  0.030408
  0.012581
  0.025315
  0.017675
  0.012581
  0.017675
  0.015128
  0.010035
  0.007488
  0.017675
  0.017675
  0.007488
 -0.005246
  0.004941
  0.007488
  0.004941
 -0.002699
 -0.010339
 -0.010339
 -0.002699
 -0.005246
 -0.012886
 -0.012886
 -0.007792
 -0.002699
 -0.010339
 -0.012886
 -0.007792
 -0.002699
 -0.007792
 -0.010339
 -0.007792
 -0.007792
 -0.010339
 -0.012886
 -0.010339
 -0.005246
 -0.005246
 -0.010339
 -0.012886
 -0.007792
 -0.005246
  0.002395
 -0.007792
 -0.012886
 -0.007792
 -0.002699
 -0.005246
 -0.010339
 -0.015432
 -0.007792
  0.002395
 -0.010339
 -0.012886
 -0.010339
 -0.005246
 -0.010339
 -0.012886
 -0.010339
 -0.007792
 -0.002699
 -0.010339
 -0.012886
 -0.010339
 -0.002699
 -0.007792
 -0.012886
 -0.012886
 -0.002699
 -0.010339
 -0.015432
 -0.010339
 -0.000152
 -0.010339
 -0.012886
 -0.007792
 -0.005246
 -0.012886
 -0.007792
 -0.002699
 -0.010339
 -0.010339
 -0.007792
 -0.010339
 -0.007792
 -0.012886
 -0.002699
 -0.007792
 -0.012886
 -0.015432
 -0.017979
 -0.030712
 -0.043446
 -0.051086
 -0.048539
  -0.07146
 -0.076553
 -0.056179
 -0.051086
 -0.023072
 -0.025619
  0.002395
  0.010035
  0.096622
  0.096622
  0.297811
  0.305452
  0.386946
  0.381852
   0.47608
  0.478627
  0.555028
  0.555028
  0.623789
  0.618695
   0.70019
  0.705283
   0.76895
   0.76131
  0.858085
  0.860632
  0.886098
  0.881005
  0.898832
  0.909019
  0.962499
  0.954859
  0.952313
  0.954859
  0.962499
  0.954859
  0.934486
  0.903925
  0.886098
  0.870818
  0.873365
  0.822431
  0.802057
   0.76131
   0.76131
  0.687456
  0.674723
  0.600868
  0.608508
  0.527014
  0.521921
  0.389493
  0.389493
  0.279985
  0.272344
   0.18321
   0.19085
  0.109356
  0.104262
  0.004941
 -0.002699
 -0.074006
  -0.06382
 -0.198794
 -0.206435
 -0.247182
 -0.244635
 -0.275195
 -0.282836
 -0.257369
 -0.257369
 -0.236995
 -0.236995
 -0.221715
 -0.216621
 -0.196248
 -0.198794
 -0.180968
 -0.175874
 -0.163141
 -0.155501
 -0.163141
 -0.168234
 -0.160594
 -0.155501
 -0.155501
 -0.158047
 -0.168234
 -0.165687
 -0.155501
 -0.158047
 -0.163141
 -0.163141
 -0.160594
 -0.155501
 -0.163141
 -0.168234
 -0.163141
 -0.160594
 -0.155501
 -0.158047
 -0.163141
 -0.163141
 -0.155501
 -0.155501
 -0.160594
 -0.165687
 -0.160594
 -0.155501
 -0.160594
 -0.168234
 -0.165687
 -0.160594
 -0.155501
 -0.160594
 -0.165687
 -0.160594
 -0.155501
 -0.158047
 -0.163141
 -0.160594
 -0.160594
 -0.158047
 -0.158047
 -0.168234
 -0.160594
 -0.152954
 -0.168234
 -0.158047
 -0.168234
 -0.163141
 -0.160594
 -0.155501
 -0.163141
 -0.168234
 -0.165687
 -0.160594
 -0.147861
 -0.158047
 -0.168234
 -0.168234
 -0.160594
 -0.155501
 -0.158047
 -0.165687
 -0.163141
 -0.155501
 -0.155501
 -0.160594
 -0.168234
 -0.160594
 -0.158047
 -0.158047
 -0.155501
 -0.165687
 -0.160594
 -0.163141
 -0.155501
 -0.163141
 -0.163141
 -0.158047
 -0.160594
 -0.168234
 -0.165687
 -0.160594
 -0.155501
 -0.163141
 -0.163141
 -0.165687
 -0.160594
 -0.145314
 -0.152954
 -0.155501
 -0.147861
 -0.145314
 -0.150407
 -0.145314
  -0.14022
 -0.122394
 -0.130034
 -0.135127
  -0.13258
   -0.1173
  -0.12494
   -0.1173
 -0.114753
 -0.099473
 -0.099473
 -0.104567
  -0.09438
  -0.09438
  -0.10202
 -0.084193
 -0.074006
  -0.06382
 -0.066366
 -0.053633
 -0.051086
 -0.045993
 -0.051086
 -0.035806
 -0.030712
 -0.023072
 -0.028166
 -0.015432
 -0.005246
 -0.007792
  0.002395
  0.007488
  0.025315
  0.017675
  0.025315
  0.030408
  0.048235
  0.045688
  0.048235
  0.055875
  0.068609
  0.058422
  0.063515
  0.068609
  0.091529
  0.091529
  0.101716
  0.106809
  0.099169
  0.096622
  0.109356
  0.109356
  0.119543
  0.116996
  0.127183
  0.132276
  0.139916
  0.132276
   0.13737
  0.147556
  0.157743
  0.147556
   0.15265
   0.16029
  0.162836
  0.157743
  0.157743
  0.155196
  0.165383
   0.16793
  0.173023
  0.170477
  0.170477
  0.165383
  0.170477
  0.165383
   0.17557
  0.170477
  0.165383
  0.170477
  0.162836
  0.155196
  0.162836
   0.16793
  0.157743
   0.15265
  0.157743
  0.162836
  0.162836
  0.142463
   0.14501
  0.147556
   0.15265
  0.142463
  0.139916
  0.134823
  0.139916
  0.142463
   0.14501
  0.129729
  0.127183
  0.122089
  0.127183
  0.124636
  0.122089
  0.109356
  0.099169
  0.109356
  0.111903
  0.101716
  0.104262
  0.094076
  0.086436
  0.088982
  0.088982
  0.081342
  0.081342
  0.078795
  0.068609
  0.071155
  0.060969
  0.050782
  0.055875
  0.060969
  0.055875
  0.050782
  0.053329
  0.045688
  0.043142
  0.045688
  0.048235
  0.040595
  0.027862
  0.032955
  0.025315
  0.027862
  0.025315
  0.017675
  0.022768
  0.027862
  0.017675
  0.007488
  0.012581
  0.017675
  0.012581
  0.007488
  0.012581
  0.017675
  0.012581
  0.007488
  0.010035
  0.017675
  0.020221
  0.007488
 -0.002699
  0.004941
  0.007488
  0.004941
  0.002395
 -0.002699
  0.007488
  0.007488
  0.004941
 -0.002699
  0.002395
 -0.002699
 -0.007792
 -0.012886
 -0.010339
 -0.005246
 -0.010339
 -0.012886
 -0.010339
 -0.007792
 -0.000152
 -0.007792
 -0.010339
 -0.007792
 -0.002699
 -0.010339
 -0.010339
 -0.012886
  0.002395
 -0.007792
 -0.017979
 -0.010339
 -0.002699
 -0.005246
 -0.012886
 -0.007792
 -0.000152
 -0.010339
 -0.010339
 -0.005246
 -0.002699
 -0.010339
 -0.012886
 -0.005246
 -0.002699
 -0.005246
 -0.010339
 -0.012886
 -0.007792
 -0.005246
 -0.012886
 -0.005246
 -0.005246
 -0.010339
 -0.017979
 -0.007792
 -0.002699
 -0.007792
 -0.005246
 -0.002699
 -0.007792
 -0.012886
 -0.007792
 -0.002699
 -0.005246
 -0.012886
 -0.005246
 -0.002699
 -0.010339
 -0.015432
 -0.007792
 -0.002699
 -0.005246
 -0.012886
 -0.007792
 -0.002699
 -0.010339
 -0.012886
 -0.007792
 -0.000152
 -0.002699
 -0.007792
 -0.010339
 -0.002699
 -0.002699
 -0.005246
 -0.017979
 -0.002699
 -0.005246
 -0.012886
 -0.010339
 -0.012886
 -0.005246
 -0.007792
 -0.010339
 -0.012886
 -0.010339
 -0.010339
 -0.010339
 -0.005246
 -0.002699
 -0.005246
 -0.010339
 -0.005246
 -0.002699
 -0.010339
 -0.012886
 -0.007792
 -0.005246
 -0.007792
 -0.015432
 -0.007792
 -0.002699
 -0.010339
 -0.012886
 -0.007792
 -0.005246
 -0.007792
 -0.015432
 -0.010339
 -0.002699
 -0.007792
 -0.012886
 -0.010339
 -0.002699
 -0.005246
 -0.005246
 -0.012886
 -0.012886
 -0.000152
 -0.010339
 -0.012886
 -0.007792
 -0.002699
 -0.010339
 -0.012886
 -0.007792
 -0.002699
 -0.005246
 -0.012886
 -0.007792
 -0.002699
 -0.005246
 -0.010339
 -0.010339
 -0.002699
 -0.010339
 -0.015432
 -0.002699
 -0.005246
 -0.012886
 -0.007792
 -0.005246
 -0.010339
 -0.012886
 -0.007792
 -0.002699
 -0.010339
 -0.010339
 -0.005246
  0.002395
 -0.005246
 -0.012886
 -0.007792
 -0.000152
 -0.010339
 -0.010339
 -0.007792
 -0.002699
 -0.010339
 -0.007792
 -0.005246
 -0.007792
 -0.012886
 -0.010339
 -0.002699
 -0.010339
 -0.012886
 -0.005246
 -0.002699
 -0.010339
 -0.012886
 -0.005246
 -0.005246
 -0.005246
 -0.012886
 -0.012886
 -0.002699
  0.002395
 -0.012886
 -0.005246
 -0.005246
 -0.012886
 -0.010339
 -0.002699
 -0.005246
 -0.010339
 -0.005246
 -0.002699
 -0.010339
 -0.012886
 -0.002699
 -0.005246
 -0.015432
 -0.012886
 -0.010339
 -0.015432
 -0.007792
 -0.000152
 -0.005246
 -0.012886
 -0.010339
 -0.002699
 -0.015432
 -0.007792
 -0.002699
 -0.005246
 -0.012886
  0.002395
 -0.000152
 -0.010339
 -0.012886
 -0.012886
 -0.005246
 -0.012886
 -0.007792
 -0.002699
 -0.012886
 -0.012886
 -0.002699
 -0.012886
 -0.012886
 -0.007792
 -0.010339
 -0.012886
 -0.007792
 -0.002699
 -0.007792
 -0.007792
 -0.007792
 -0.002699
 -0.005246
 -0.010339
 -0.010339
 -0.002699
 -0.007792
 -0.015432
 -0.012886
 -0.002699
 -0.010339
 -0.007792
 -0.002699
 -0.007792
 -0.010339
 -0.005246
 -0.002699
 -0.005246
 -0.012886
 -0.007792
 -0.005246
 -0.012886
 -0.007792
 -0.002699
 -0.005246
 -0.015432
 -0.005246
 -0.002699
  0.002395
 -0.007792
 -0.015432
 -0.005246
 -0.002699
 -0.005246
 -0.007792
 -0.012886
 -0.007792
 -0.002699
 -0.002699
 -0.002699
 -0.015432
 -0.007792
 -0.005246
 -0.007792
 -0.005246
 -0.012886
 -0.005246
 -0.005246
 -0.007792
 -0.012886
 -0.007792
 -0.010339
 -0.002699
 -0.005246
 -0.012886
 -0.007792
 -0.000152
 -0.010339
 -0.015432
 -0.002699
 -0.007792
 -0.010339
 -0.012886
 -0.007792
 -0.002699
 -0.010339
 -0.012886
 -0.010339
 -0.002699
 -0.010339
 -0.012886
 -0.007792
  0.002395
  0.004941
 -0.002699
  0.012581
  0.017675
  0.012581
  0.007488
  0.027862
  0.030408
  0.025315
  0.017675
  0.030408
  0.035502
  0.027862
  0.025315
  0.043142
  0.040595
  0.038048
  0.038048
  0.038048
  0.048235
  0.050782
  0.045688
  0.050782
  0.050782
  0.048235
  0.048235
  0.048235
  0.058422
  0.050782
  0.048235
  0.048235
  0.048235
  0.058422
  0.053329
  0.045688
  0.043142
  0.045688
  0.050782
  0.040595
  0.035502
  0.043142
  0.048235
  0.043142
  0.038048
  0.045688
  0.045688
  0.038048
  0.043142
  0.048235
  0.048235
  0.043142
  0.027862
  0.030408
  0.038048
  0.025315
  0.032955
  0.030408
  0.027862
  0.025315
  0.015128
  0.022768
  0.027862
  0.025315
  0.017675
  0.012581
  0.010035
  0.022768
  0.010035
  0.007488
  0.012581
  0.017675
  0.015128
  0.002395
 -0.002699
 -0.000152
  0.007488
  0.002395
 -0.002699
 -0.005246
 -0.002699
 -0.005246
 -0.010339
 -0.005246
 -0.002699
 -0.007792
 -0.012886
 -0.005246
 -0.000152
 -0.007792
 -0.012886
 -0.007792
 -0.007792
 -0.007792
 -0.012886
 -0.007792
 -0.002699
 -0.010339
 -0.012886
 -0.007792
 -0.002699
 -0.007792
 -0.007792
 -0.007792
 -0.002699
 -0.007792
 -0.017979
 -0.005246
 -0.002699
 -0.007792
 -0.012886
 -0.007792
 -0.002699
 -0.005246
 -0.017979
 -0.007792
  0.002395
 -0.010339
 -0.012886
 -0.010339
 -0.002699
 -0.010339
 -0.012886
 -0.007792
  0.002395
 -0.007792
 -0.012886
 -0.005246
 -0.000152
 -0.007792
 -0.012886
 -0.007792
 -0.005246
 -0.012886
 -0.007792
 -0.002699
 -0.012886
 -0.012886
 -0.002699
 -0.002699
 -0.005246
 -0.012886
 -0.005246
 -0.007792
 -0.012886
 -0.005246
 -0.000152
 -0.010339
 -0.015432
 -0.007792
  0.002395
 -0.005246
 -0.005246
 -0.033259
 -0.025619
 -0.038353
 -0.043446
 -0.061273
 -0.053633
 -0.074006
   -0.0791
 -0.053633
 -0.045993
 -0.023072
 -0.023072
  0.002395
  0.004941
  0.101716
  0.099169
  0.300358
  0.292718
  0.389493
  0.392039
  0.470987
  0.473534
  0.555028
  0.555028
  0.613602
  0.616149
  0.710376
  0.697643
  0.763857
   0.76895
  0.863178
  0.852991
  0.881005
  0.891192
  0.906472
  0.939579
  0.957406
  0.965046
  0.954859
  0.949766
  0.957406
  0.947219
  0.934486
  0.881005
  0.878458
  0.878458
  0.870818
  0.799511
  0.802057
  0.771497
  0.763857
  0.679816
  0.682363
  0.608508
  0.605962
  0.527014
  0.527014
  0.389493
  0.389493
  0.277438
  0.274891
  0.185757
  0.188303
  0.109356
  0.094076
  0.004941
  0.007488
 -0.074006
   -0.0791
 -0.196248
 -0.198794
 -0.252275
 -0.249728
 -0.275195
 -0.277742
 -0.259915
 -0.249728
 -0.239542
 -0.231902
 -0.216621
 -0.198794
 -0.198794
 -0.186061
 -0.178421
 -0.158047
 -0.163141
 -0.165687
 -0.160594
 -0.155501
 -0.163141
 -0.165687
 -0.160594
 -0.155501
 -0.163141
 -0.160594
 -0.158047
 -0.155501
 -0.160594
 -0.165687
 -0.158047
 -0.155501
 -0.158047
 -0.165687
 -0.163141
 -0.168234
 -0.165687
 -0.160594
 -0.155501
 -0.160594
 -0.165687
 -0.160594
 -0.155501
 -0.158047
 -0.168234
 -0.160594
 -0.155501
 -0.155501
 -0.168234
 -0.160594
 -0.155501
 -0.160594
 -0.168234
 -0.165687
 -0.155501
 -0.160594
 -0.168234
 -0.163141
 -0.152954
 -0.160594
 -0.168234
 -0.163141
 -0.155501
 -0.160594
 -0.168234
 -0.165687
 -0.155501
 -0.160594
 -0.165687
 -0.158047
 -0.155501
 -0.163141
 -0.163141
 -0.160594
 -0.155501
 -0.168234
 -0.168234
 -0.158047
 -0.155501
 -0.160594
 -0.165687
 -0.155501
 -0.155501
 -0.160594
 -0.170781
 -0.160594
 -0.152954
 -0.163141
 -0.160594
 -0.155501
 -0.163141
 -0.168234
 -0.160594
 -0.158047
 -0.158047
 -0.163141
 -0.163141
 -0.155501
 -0.160594
 -0.163141
 -0.155501
 -0.160594
 -0.163141
 -0.160594
 -0.158047
 -0.158047
 -0.165687
 -0.150407
 -0.145314
 -0.155501
 -0.158047
 -0.152954
 -0.145314
 -0.142767
 -0.147861
  -0.13258
  -0.12494
  -0.13258
 -0.135127
 -0.119847
 -0.114753
 -0.114753
  -0.10966
  -0.09438
 -0.099473
 -0.099473
  -0.09438
  -0.08674
  -0.08674
 -0.084193
  -0.08674
 -0.066366
 -0.053633
 -0.056179
 -0.053633
 -0.040899
 -0.035806
 -0.038353
 -0.028166
 -0.020526
 -0.015432
 -0.017979
 -0.010339
 -0.002699
  0.017675
  0.012581
  0.012581
  0.022768
  0.035502
  0.032955
  0.038048
  0.043142
  0.058422
  0.050782
  0.058422
  0.058422
  0.076249
  0.068609
  0.086436
  0.091529
  0.104262
  0.099169
  0.096622
  0.104262
  0.116996
  0.109356
  0.111903
  0.116996
  0.132276
  0.129729
  0.132276
  0.142463
  0.142463
  0.139916
  0.150103
  0.147556
   0.16029
  0.162836
  0.155196
   0.15265
  0.157743
  0.170477
   0.16793
  0.162836
   0.16793
  0.170477
   0.16793
   0.16029
   0.16793
  0.173023
  0.165383
   0.16029
  0.165383
   0.17557
  0.170477
  0.155196
   0.15265
  0.165383
  0.157743
  0.157743
  0.157743
  0.157743
   0.16029
  0.150103
  0.142463
   0.14501
  0.155196
   0.13737
  0.139916
  0.142463
  0.139916
   0.13737
  0.134823
  0.127183
  0.132276
  0.132276
  0.119543
  0.116996
  0.119543
  0.111903
  0.106809
  0.109356
  0.106809
  0.099169
  0.094076
  0.099169
  0.088982
  0.086436
  0.081342
  0.088982
  0.078795
  0.073702
  0.068609
  0.076249
  0.060969
  0.058422
  0.068609
  0.063515
  0.045688
  0.050782
  0.058422
  0.050782
  0.035502
  0.043142
  0.048235
  0.043142
  0.025315
  0.032955
  0.020221
  0.027862
  0.022768
  0.015128
  0.022768
  0.027862
  0.010035
  0.007488
  0.012581
  0.017675
  0.015128
  0.007488
  0.015128
  0.017675
  0.007488
  0.010035
  0.017675
  0.010035
  0.010035
  0.004941
  0.007488
  0.002395
 -0.005246
  0.002395
  0.010035
  0.004941
 -0.002699
  0.007488
  0.007488
  0.004941
 -0.005246
 -0.010339
 -0.002699
 -0.005246
 -0.010339
 -0.002699
 -0.007792
 -0.012886
 -0.005246
 -0.002699
 -0.002699
 -0.005246
 -0.012886
 -0.007792
 -0.002699
 -0.005246
 -0.015432
 -0.010339
 -0.005246
 -0.010339
 -0.012886
 -0.005246
 -0.010339
 -0.012886
 -0.005246
 -0.002699
 -0.012886
 -0.012886
 -0.007792
 -0.002699
 -0.007792
 -0.012886
 -0.007792
 -0.012886
 -0.012886
 -0.007792
 -0.002699
 -0.007792
 -0.010339
 -0.005246
 -0.000152
 -0.007792
 -0.012886
 -0.010339
 -0.007792
 -0.012886
 -0.007792
 -0.005246
 -0.007792
 -0.015432
 -0.007792
 -0.002699
 -0.005246
 -0.012886
 -0.005246
 -0.002699
 -0.005246
 -0.010339
 -0.007792
 -0.002699
 -0.007792
 -0.012886
 -0.007792
 -0.002699
 -0.010339
 -0.010339
 -0.007792
 -0.000152
 -0.012886
 -0.017979
 -0.007792
 -0.005246
 -0.012886
 -0.007792
 -0.010339
 -0.005246
 -0.007792
 -0.012886
 -0.007792
 -0.000152
 -0.007792
 -0.015432
 -0.007792
 -0.005246
 -0.005246
 -0.012886
 -0.007792
 -0.002699
 -0.010339
 -0.010339
 -0.007792
 -0.002699
 -0.007792
 -0.010339
 -0.002699
 -0.002699
 -0.005246
 -0.007792
 -0.010339
  0.002395
 -0.010339
 -0.012886
 -0.000152
 -0.010339
 -0.012886
 -0.010339
 -0.005246
 -0.012886
 -0.005246
  0.002395
 -0.007792
 -0.012886
 -0.007792
 -0.002699
 -0.005246
 -0.012886
 -0.007792
 -0.002699
 -0.007792
 -0.015432
 -0.010339
 -0.000152
 -0.007792
 -0.007792
 -0.002699
 -0.005246
 -0.017979
 -0.007792
 -0.010339
 -0.012886
 -0.007792
 -0.005246
 -0.005246
 -0.010339
 -0.015432
 -0.012886
  0.002395
 -0.005246
 -0.012886
 -0.010339
 -0.005246
 -0.012886
 -0.007792
 -0.005246
 -0.005246
 -0.012886
 -0.007792
 -0.002699
 -0.010339
 -0.012886
 -0.007792
 -0.002699
 -0.005246
 -0.012886
 -0.005246
 -0.005246
 -0.007792
 -0.012886
 -0.010339
 -0.005246
 -0.010339
 -0.012886
 -0.005246
 -0.000152
 -0.010339
 -0.012886
 -0.010339
 -0.002699
 -0.007792
 -0.012886
 -0.007792
 -0.002699
 -0.010339
 -0.012886
 -0.007792
 -0.000152
 -0.007792
 -0.012886
 -0.010339
 -0.007792
 -0.012886
 -0.010339
 -0.002699
 -0.012886
 -0.007792
 -0.002699
 -0.007792
 -0.012886
 -0.007792
 -0.005246
 -0.007792
 -0.012886
 -0.007792
 -0.002699
 -0.010339
 -0.012886
 -0.010339
 -0.002699
 -0.012886
 -0.010339
 -0.002699
 -0.005246
 -0.012886
 -0.007792
 -0.005246
 -0.005246
 -0.012886
 -0.007792
 -0.007792
 -0.012886
 -0.012886
 -0.010339
 -0.000152
 -0.005246
 -0.010339
 -0.007792
 -0.005246
 -0.010339
 -0.012886
  0.002395
 -0.002699
 -0.005246
 -0.007792
 -0.010339
 -0.005246
 -0.007792
 -0.015432
 -0.012886
 -0.007792
 -0.005246
 -0.012886
 -0.007792
 -0.002699
 -0.005246
 -0.012886
 -0.017979
 -0.010339
 -0.000152
 -0.002699
 -0.010339
 -0.010339
 -0.007792
 -0.002699
 -0.005246
 -0.007792
 -0.012886
 -0.005246
 -0.010339
 -0.007792
 -0.010339
 -0.012886
 -0.010339
 -0.007792
 -0.002699
 -0.010339
 -0.012886
 -0.012886
 -0.007792
 -0.005246
 -0.007792
 -0.012886
 -0.012886
 -0.007792
 -0.002699
 -0.005246
 -0.017979
 -0.010339
 -0.002699
 -0.005246
 -0.015432
 -0.007792
 -0.002699
 -0.005246
 -0.010339
 -0.010339
 -0.000152
 -0.005246
 -0.012886
 -0.007792
 -0.005246
 -0.012886
 -0.007792
 -0.002699
 -0.005246
 -0.015432
 -0.010339
 -0.005246
 -0.007792
 -0.012886
 -0.005246
 -0.002699
 -0.005246
 -0.007792
 -0.007792
 -0.002699
 -0.005246
 -0.010339
 -0.000152
 -0.005246
 -0.012886
  0.002395
  0.007488
  0.007488
  0.004941
  0.007488
  0.017675
  0.022768
  0.017675
  0.022768
  0.025315
  0.030408
  0.027862
  0.030408
  0.038048
  0.045688
  0.043142
  0.048235
  0.038048
  0.035502
  0.048235
  0.053329
  0.048235
  0.048235
  0.053329
  0.058422
  0.048235
  0.045688
  0.050782
  0.058422
  0.050782
  0.045688
  0.053329
  0.050782
  0.050782
  0.048235
  0.048235
  0.040595
  0.035502
  0.038048
  0.043142
  0.038048
  0.040595
  0.048235
  0.040595
  0.038048
  0.043142
  0.048235
  0.045688
  0.035502
  0.040595
  0.048235
  0.030408
  0.027862
  0.030408
  0.038048
  0.030408
  0.025315
  0.022768
  0.022768
  0.017675
  0.020221
  0.025315
  0.020221
  0.015128
  0.017675
  0.015128
  0.015128
  0.010035
  0.012581
  0.010035
  0.004941
  0.015128
  0.007488
 -0.002699
  0.002395
  0.007488
  0.002395
  0.004941
 -0.005246
 -0.002699
 -0.010339
 -0.002699
 -0.007792
 -0.012886
 -0.005246
 -0.002699
 -0.010339
 -0.012886
 -0.005246
 -0.002699
 -0.012886
 -0.012886
 -0.005246
 -0.007792
 -0.012886
 -0.007792
 -0.002699
 -0.010339
 -0.012886
 -0.007792
 -0.005246
 -0.005246
 -0.012886
 -0.007792
 -0.005246
 -0.005246
 -0.007792
 -0.000152
 -0.007792
 -0.012886
 -0.007792
 -0.007792
 -0.015432
 -0.005246
 -0.005246
 -0.002699
 -0.012886
 -0.007792
 -0.002699
 -0.007792
 -0.005246
 -0.005246
 -0.007792
 -0.010339
 -0.010339
 -0.000152
 -0.007792
 -0.012886
 -0.010339
 -0.000152
 -0.007792
 -0.012886
 -0.010339
 -0.002699
 -0.005246
 -0.007792
 -0.000152
 -0.007792
 -0.012886
 -0.005246
 -0.000152
 -0.007792
 -0.012886
 -0.007792
  0.002395
 -0.005246
 -0.012886
 -0.007792
 -0.002699
 -0.010339
 -0.012886
 -0.005246
 -0.023072
 -0.028166
 -0.045993
 -0.035806
 -0.053633
 -0.061273
 -0.074006
  -0.06382
 -0.056179
 -0.056179
 -0.023072
 -0.023072
  0.002395
 -0.007792
  0.109356
  0.099169
  0.290171
  0.300358
  0.397133
  0.389493
  0.470987
  0.473534
  0.555028
  0.555028
  0.613602
  0.618695
  0.710376
   0.71547
  0.758764
  0.812244
  0.865725
  0.875912
  0.875912
  0.906472
  0.911565
  0.947219
  0.957406
  0.962499
  0.954859
  0.952313
  0.962499
  0.937032
  0.931939
  0.878458
  0.883552
  0.873365
  0.865725
  0.807151
  0.802057
  0.758764
  0.763857
  0.679816
  0.677269
  0.600868
  0.611055
  0.529561
  0.524467
  0.384399
  0.384399
  0.272344
  0.269798
  0.185757
  0.188303
  0.099169
  0.094076
  0.002395
  0.004941
 -0.076553
 -0.074006
 -0.196248
 -0.219168
 -0.252275
 -0.265009
 -0.272649
 -0.262462
 -0.259915
 -0.242088
 -0.236995
 -0.221715
 -0.221715
 -0.198794
 -0.196248
 -0.178421
 -0.183514
 -0.160594
 -0.155501
 -0.160594
 -0.158047
 -0.168234
 -0.160594
 -0.165687
 -0.165687
 -0.155501
 -0.160594
 -0.168234
 -0.163141
 -0.155501
 -0.158047
 -0.165687
 -0.160594
 -0.155501
 -0.168234
 -0.160594
 -0.158047
 -0.158047
 -0.168234
 -0.163141
 -0.158047
 -0.160594
 -0.160594
 -0.152954
 -0.160594
 -0.165687
 -0.165687
 -0.155501
 -0.163141
 -0.168234
 -0.158047
 -0.155501
 -0.160594
 -0.168234
 -0.160594
 -0.155501
 -0.160594
 -0.165687
 -0.163141
 -0.155501
 -0.155501
 -0.165687
 -0.160594
 -0.155501
 -0.160594
 -0.165687
 -0.160594
 -0.155501
 -0.160594
 -0.163141
 -0.158047
 -0.155501
 -0.158047
 -0.160594
 -0.155501
 -0.163141
 -0.165687
 -0.160594
 -0.155501
 -0.158047
 -0.170781
 -0.160594
 -0.155501
 -0.168234
 -0.158047
 -0.155501
 -0.163141
 -0.165687
 -0.168234
 -0.163141
 -0.155501
 -0.163141
 -0.168234
 -0.160594
 -0.163141
 -0.165687
 -0.158047
 -0.158047
 -0.155501
 -0.168234
 -0.168234
 -0.160594
 -0.158047
 -0.158047
 -0.163141
 -0.165687
 -0.160594
 -0.155501
 -0.160594
 -0.155501
 -0.158047
 -0.145314
 -0.142767
 -0.150407
 -0.158047
 -0.145314
 -0.145314
 -0.122394
  -0.13258
 -0.135127
 -0.135127
  -0.12494
   -0.1173
 -0.104567
 -0.112207
 -0.104567
 -0.104567
 -0.089287
 -0.091833
 -0.096927
   -0.0791
 -0.076553
 -0.068913
  -0.06382
 -0.061273
 -0.053633
 -0.040899
 -0.045993
 -0.038353
 -0.038353
 -0.023072
 -0.023072
 -0.020526
 -0.012886
 -0.012886
 -0.012886
  0.015128
  0.010035
  0.022768
  0.017675
  0.032955
  0.035502
  0.040595
  0.038048
  0.053329
  0.058422
  0.058422
  0.055875
  0.068609
  0.076249
  0.083889
  0.088982
  0.104262
  0.099169
  0.099169
  0.099169
  0.111903
  0.109356
  0.122089
  0.129729
  0.134823
  0.129729
   0.13737
  0.142463
  0.139916
   0.13737
   0.14501
  0.165383
  0.157743
  0.150103
   0.15265
  0.165383
  0.157743
  0.165383
  0.170477
  0.170477
   0.16793
   0.16029
  0.173023
   0.16793
   0.16029
   0.16793
  0.170477
  0.170477
   0.16029
  0.170477
  0.170477
  0.157743
  0.155196
   0.16029
  0.165383
  0.150103
  0.150103
  0.157743
  0.165383
   0.14501
   0.14501
   0.14501
   0.15265
  0.139916
  0.129729
  0.139916
  0.147556
   0.13737
  0.127183
  0.134823
  0.129729
  0.127183
  0.119543
  0.124636
  0.109356
  0.101716
  0.109356
  0.114449
  0.096622
  0.094076
  0.101716
  0.106809
  0.088982
  0.091529
  0.078795
  0.088982
  0.081342
  0.078795
  0.071155
  0.071155
  0.063515
  0.063515
  0.055875
  0.060969
  0.058422
  0.058422
  0.045688
  0.053329
  0.048235
  0.043142
  0.035502
  0.043142
  0.038048
  0.030408
  0.017675
  0.022768
  0.027862
  0.020221
  0.017675
  0.017675
  0.015128
  0.012581
  0.004941
  0.015128
  0.015128
  0.015128
  0.004941
  0.012581
  0.017675
  0.007488
  0.012581
  0.017675
  0.015128
 -0.002699
  0.004941
 -0.000152
  0.004941
  0.002395
  0.004941
 -0.000152
  0.007488
  0.002395
 -0.002699
  0.004941
  0.010035
 -0.010339
 -0.005246
 -0.007792
 -0.002699
 -0.010339
 -0.010339
 -0.010339
 -0.000152
 -0.010339
 -0.012886
 -0.012886
 -0.007792
 -0.005246
 -0.010339
 -0.005246
 -0.002699
 -0.005246
 -0.007792
 -0.010339
 -0.010339
 -0.000152
 -0.010339
 -0.012886
 -0.010339
 -0.002699
 -0.007792
 -0.012886
 -0.005246
 -0.005246
 -0.007792
 -0.012886
 -0.010339
 -0.005246
 -0.010339
 -0.012886
 -0.007792
 -0.002699
 -0.005246
 -0.015432
 -0.010339
  0.002395
 -0.010339
 -0.012886
 -0.007792
 -0.002699
 -0.012886
 -0.007792
 -0.002699
 -0.010339
 -0.012886
 -0.007792
 -0.010339
 -0.010339
 -0.015432
 -0.005246
 -0.005246
 -0.010339
 -0.012886
 -0.012886
 -0.007792
 -0.000152
 -0.005246
 -0.010339
 -0.007792
 -0.002699
 -0.005246
 -0.015432
 -0.005246
 -0.002699
 -0.007792
 -0.012886
 -0.005246
 -0.007792
 -0.007792
 -0.010339
 -0.005246
 -0.005246
 -0.010339
 -0.015432
 -0.010339
 -0.000152
 -0.005246
 -0.012886
 -0.007792
 -0.002699
 -0.010339
 -0.012886
 -0.007792
 -0.000152
 -0.012886
 -0.007792
 -0.002699
 -0.005246
 -0.007792
 -0.012886
 -0.005246
 -0.010339
 -0.010339
 -0.005246
 -0.000152
 -0.007792
 -0.012886
 -0.010339
 -0.002699
 -0.007792
 -0.012886
 -0.007792
  0.007488
 -0.007792
 -0.012886
 -0.007792
 -0.007792
 -0.005246
 -0.012886
 -0.007792
 -0.002699
 -0.010339
 -0.012886
 -0.005246
  0.002395
 -0.005246
 -0.007792
 -0.007792
 -0.007792
 -0.015432
 -0.005246
 -0.002699
 -0.007792
 -0.012886
 -0.005246
 -0.007792
 -0.000152
 -0.012886
 -0.010339
 -0.002699
 -0.007792
 -0.012886
 -0.010339
 -0.005246
 -0.005246
 -0.012886
 -0.005246
 -0.002699
 -0.005246
 -0.015432
 -0.012886
 -0.005246
 -0.002699
 -0.005246
 -0.012886
 -0.012886
 -0.007792
 -0.000152
 -0.005246
 -0.012886
 -0.010339
 -0.000152
 -0.002699
 -0.010339
 -0.012886
 -0.007792
 -0.000152
 -0.005246
 -0.012886
 -0.012886
 -0.010339
 -0.005246
 -0.002699
 -0.012886
 -0.012886
 -0.002699
 -0.005246
 -0.015432
 -0.007792
 -0.010339
 -0.000152
 -0.010339
 -0.010339
 -0.005246
 -0.005246
 -0.007792
 -0.012886
 -0.012886
 -0.005246
 -0.005246
 -0.012886
 -0.007792
 -0.000152
 -0.005246
 -0.012886
 -0.007792
 -0.002699
 -0.007792
 -0.012886
 -0.005246
 -0.010339
 -0.007792
 -0.010339
 -0.000152
 -0.007792
 -0.012886
 -0.005246
 -0.002699
 -0.005246
 -0.012886
 -0.007792
 -0.000152
 -0.005246
 -0.007792
 -0.007792
 -0.002699
 -0.010339
 -0.010339
 -0.002699
 -0.005246
 -0.012886
 -0.010339
 -0.002699
 -0.007792
 -0.012886
 -0.010339
 -0.000152
 -0.005246
 -0.015432
 -0.007792
 -0.005246
 -0.007792
 -0.010339
 -0.002699
 -0.005246
 -0.012886
 -0.010339
 -0.005246
 -0.010339
 -0.012886
 -0.010339
 -0.005246
 -0.005246
 -0.007792
 -0.005246
 -0.002699
 -0.010339
 -0.010339
 -0.007792
 -0.005246
 -0.005246
 -0.012886
 -0.007792
 -0.010339
 -0.002699
 -0.010339
 -0.007792
 -0.007792
 -0.002699
 -0.010339
 -0.012886
 -0.005246
  0.002395
 -0.007792
 -0.012886
 -0.005246
 -0.002699
 -0.002699
 -0.007792
 -0.010339
 -0.007792
 -0.002699
 -0.010339
 -0.012886
 -0.005246
 -0.005246
 -0.005246
 -0.017979
 -0.000152
 -0.005246
 -0.012886
 -0.010339
 -0.002699
 -0.010339
 -0.012886
 -0.010339
 -0.007792
 -0.005246
 -0.012886
 -0.005246
 -0.005246
 -0.007792
 -0.012886
 -0.010339
 -0.005246
 -0.005246
 -0.012886
 -0.010339
 -0.002699
 -0.007792
 -0.015432
 -0.010339
 -0.002699
 -0.005246
 -0.012886
 -0.005246
  0.007488
  0.002395
  0.007488
  0.012581
  0.022768
  0.022768
  0.022768
  0.017675
  0.025315
  0.030408
  0.025315
  0.032955
  0.038048
  0.043142
  0.035502
  0.040595
  0.048235
  0.043142
  0.035502
  0.048235
  0.058422
  0.050782
  0.048235
  0.053329
  0.050782
  0.053329
  0.048235
  0.050782
  0.058422
  0.050782
  0.048235
  0.048235
  0.053329
  0.045688
  0.050782
  0.045688
  0.045688
  0.035502
  0.045688
  0.043142
  0.035502
  0.048235
  0.048235
  0.043142
  0.038048
  0.038048
  0.048235
  0.043142
  0.043142
  0.035502
  0.038048
  0.038048
  0.030408
  0.030408
  0.032955
  0.038048
  0.022768
  0.017675
  0.022768
  0.030408
  0.012581
  0.022768
  0.030408
  0.022768
  0.007488
  0.012581
  0.015128
  0.020221
  0.007488
  0.010035
  0.020221
  0.010035
  0.004941
 -0.002699
  0.002395
  0.007488
  0.004941
 -0.002699
 -0.010339
 -0.002699
 -0.010339
 -0.012886
 -0.007792
 -0.000152
 -0.007792
 -0.012886
 -0.010339
 -0.002699
 -0.012886
 -0.012886
 -0.007792
 -0.002699
 -0.007792
 -0.012886
 -0.010339
 -0.002699
 -0.010339
 -0.012886
 -0.007792
 -0.002699
 -0.005246
 -0.005246
 -0.012886
 -0.002699
 -0.007792
 -0.007792
 -0.010339
 -0.007792
 -0.002699
 -0.007792
 -0.012886
 -0.005246
 -0.010339
 -0.000152
 -0.005246
 -0.012886
 -0.005246
 -0.002699
 -0.005246
 -0.012886
 -0.005246
 -0.005246
 -0.005246
 -0.015432
 -0.010339
 -0.007792
 -0.002699
 -0.007792
 -0.012886
 -0.005246
 -0.002699
 -0.012886
 -0.007792
 -0.010339
 -0.007792
  0.002395
 -0.010339
 -0.010339
 -0.002699
 -0.010339
 -0.000152
 -0.007792
 -0.012886
 -0.012886
 -0.012886
 -0.005246
 -0.007792
 -0.015432
 -0.007792
 -0.002699
 -0.012886
 -0.015432
 -0.033259
 -0.025619
 -0.040899
 -0.045993
 -0.066366
 -0.053633
 -0.066366
  -0.07146
 -0.051086
 -0.053633
 -0.025619
 -0.017979
  0.004941
  0.007488
  0.096622
  0.101716
  0.307998
  0.302905
  0.379306
  0.394586
  0.473534
  0.521921
  0.552481
  0.593228
  0.621242
  0.692549
  0.712923
  0.756217
  0.756217
  0.858085
  0.868272
  0.878458
  0.878458
  0.903925
  0.906472
  0.962499
  0.957406
  0.952313
  0.957406
  0.962499
  0.954859
  0.931939
  0.939579
  0.883552
  0.886098
  0.873365
  0.863178
  0.802057
  0.804604
  0.771497
   0.76131
  0.672176
  0.677269
  0.605962
  0.611055
  0.524467
  0.516827
  0.389493
  0.394586
  0.274891
  0.267251
  0.180663
   0.15265
  0.106809
  0.040595
 -0.005246
 -0.056179
 -0.066366
 -0.178421
 -0.203888
 -0.247182
 -0.242088
 -0.277742
 -0.280289
 -0.257369
 -0.254822
 -0.236995
 -0.242088
 -0.216621
 -0.208981
 -0.196248
 -0.198794
 -0.183514
 -0.180968
 -0.160594
 -0.170781
 -0.160594
 -0.155501
 -0.152954
 -0.163141
 -0.163141
 -0.155501
 -0.165687
 -0.168234
 -0.160594
 -0.155501
 -0.160594
 -0.170781
 -0.160594
 -0.158047
 -0.155501
 -0.160594
 -0.168234
 -0.163141
 -0.163141
 -0.170781
 -0.160594
 -0.155501
 -0.152954
 -0.160594
 -0.165687
 -0.160594
 -0.155501
 -0.158047
 -0.170781
 -0.160594
 -0.158047
 -0.158047
 -0.165687
 -0.163141
 -0.155501
 -0.158047
 -0.165687
 -0.163141
 -0.155501
 -0.163141
 -0.168234
 -0.155501
 -0.158047
 -0.173328
 -0.158047
 -0.160594
 -0.155501
 -0.165687
 -0.165687
 -0.158047
 -0.160594
 -0.155501
 -0.155501
 -0.163141
 -0.160594
 -0.160594
 -0.155501
 -0.160594
 -0.165687
 -0.170781
 -0.160594
 -0.155501
 -0.165687
 -0.168234
 -0.165687
 -0.160594
 -0.155501
 -0.163141
 -0.165687
 -0.168234
 -0.158047
 -0.155501
 -0.160594
 -0.160594
 -0.168234
 -0.160594
 -0.160594
 -0.160594
 -0.160594
 -0.168234
 -0.160594
 -0.155501
 -0.160594
 -0.160594
 -0.160594
 -0.155501
 -0.155501
 -0.160594
 -0.168234
 -0.160594
 -0.145314
 -0.150407
 -0.158047
 -0.152954
 -0.147861
 -0.150407
 -0.147861
 -0.145314
  -0.12494
 -0.127487
 -0.130034
  -0.13258
 -0.122394
 -0.104567
 -0.112207
  -0.10966
 -0.104567
 -0.091833
  -0.09438
 -0.091833
 -0.096927
 -0.084193
   -0.0791
  -0.06382
 -0.068913
 -0.053633
 -0.045993
 -0.038353
 -0.045993
 -0.038353
 -0.035806
 -0.023072
 -0.023072
 -0.023072
 -0.015432
 -0.005246
 -0.002699
  0.010035
  0.002395
  0.022768
  0.027862
  0.030408
  0.025315
  0.038048
  0.053329
  0.053329
  0.045688
  0.053329
  0.060969
  0.076249
  0.071155
  0.086436
  0.088982
  0.111903
  0.099169
  0.091529
  0.106809
  0.114449
  0.116996
  0.114449
  0.132276
  0.127183
  0.134823
  0.139916
  0.142463
   0.13737
  0.150103
  0.150103
  0.157743
  0.157743
   0.16029
  0.157743
  0.150103
  0.150103
  0.178117
  0.170477
  0.170477
   0.16029
  0.165383
   0.17557
   0.16793
  0.162836
   0.16793
  0.170477
   0.16793
  0.165383
   0.16793
  0.173023
  0.155196
   0.15265
  0.157743
  0.162836
   0.16029
   0.15265
  0.150103
   0.16029
  0.150103
  0.142463
  0.150103
   0.14501
   0.13737
  0.139916
   0.14501
  0.132276
  0.134823
  0.129729
  0.134823
  0.129729
  0.122089
  0.119543
  0.127183
  0.109356
  0.106809
  0.109356
  0.116996
  0.101716
  0.099169
  0.104262
  0.101716
  0.083889
  0.091529
  0.083889
  0.083889
  0.081342
  0.083889
  0.076249
  0.071155
  0.058422
  0.063515
  0.068609
  0.060969
  0.045688
  0.045688
  0.058422
  0.050782
  0.040595
  0.045688
  0.045688
  0.030408
  0.030408
  0.030408
  0.022768
  0.017675
  0.022768
  0.025315
  0.025315
  0.010035
  0.012581
  0.017675
  0.012581
  0.004941
  0.012581
  0.017675
  0.012581
  0.004941
  0.007488
  0.015128
  0.017675
  0.012581
  0.007488
 -0.005246
  0.004941
  0.007488
  0.007488
  0.004941
 -0.000152
  0.002395
  0.007488
  0.007488
  0.002395
 -0.002699
 -0.005246
 -0.010339
 -0.005246
 -0.005246
 -0.005246
 -0.012886
 -0.007792
 -0.002699
 -0.002699
 -0.005246
 -0.012886
 -0.012886
 -0.010339
 -0.005246
 -0.010339
 -0.010339
 -0.015432
 -0.010339
 -0.005246
 -0.002699
 -0.007792
 -0.010339
 -0.012886
 -0.010339
 -0.007792
 -0.002699
 -0.007792
 -0.010339
 -0.012886
 -0.012886
 -0.007792
 -0.000152
 -0.002699
 -0.005246
 -0.007792
 -0.007792
 -0.007792
 -0.000152
 -0.007792
 -0.007792
 -0.012886
 -0.007792
 -0.007792
 -0.002699
 -0.007792
 -0.007792
 -0.010339
 -0.005246
 -0.002699
 -0.005246
 -0.012886
 -0.005246
 -0.005246
 -0.010339
 -0.010339
 -0.007792
 -0.002699
 -0.007792
 -0.012886
 -0.005246
 -0.002699
 -0.005246
 -0.015432
 -0.005246
 -0.005246
 -0.007792
 -0.012886
 -0.005246
 -0.005246
 -0.005246
 -0.010339
 -0.012886
 -0.012886
 -0.002699
 -0.005246
 -0.012886
 -0.010339
 -0.002699
 -0.007792
 -0.012886
 -0.007792
 -0.002699
 -0.010339
 -0.015432
 -0.010339
 -0.002699
 -0.010339
 -0.015432
 -0.002699
 -0.002699
 -0.005246
 -0.012886
 -0.007792
 -0.005246
 -0.005246
 -0.012886
 -0.007792
 -0.005246
 -0.005246
 -0.012886
 -0.007792
 -0.002699
 -0.005246
 -0.010339
 -0.005246
 -0.002699
 -0.010339
 -0.012886
 -0.007792
 -0.002699
 -0.012886
 -0.010339
 -0.010339
 -0.002699
 -0.005246
 -0.012886
 -0.012886
 -0.002699
 -0.010339
 -0.012886
 -0.007792
 -0.005246
 -0.007792
 -0.020526
 -0.012886
 -0.002699
 -0.007792
 -0.012886
 -0.007792
 -0.002699
 -0.002699
 -0.007792
 -0.012886
 -0.005246
 -0.000152
 -0.005246
 -0.012886
 -0.005246
 -0.005246
 -0.005246
 -0.010339
 -0.007792
 -0.000152
 -0.005246
 -0.012886
 -0.007792
 -0.005246
 -0.005246
 -0.012886
 -0.007792
 -0.000152
 -0.005246
 -0.012886
 -0.017979
 -0.005246
 -0.007792
 -0.012886
 -0.010339
 -0.002699
 -0.000152
 -0.010339
 -0.012886
 -0.007792
 -0.000152
 -0.010339
 -0.010339
 -0.010339
 -0.010339
 -0.005246
 -0.005246
 -0.012886
 -0.010339
 -0.002699
 -0.000152
 -0.012886
 -0.007792
 -0.005246
 -0.005246
 -0.012886
 -0.010339
 -0.002699
 -0.005246
 -0.012886
 -0.012886
 -0.010339
 -0.002699
 -0.007792
 -0.012886
 -0.010339
 -0.002699
 -0.010339
 -0.005246
 -0.002699
 -0.005246
 -0.005246
 -0.007792
 -0.005246
 -0.007792
 -0.012886
 -0.007792
 -0.002699
 -0.012886
 -0.007792
 -0.010339
 -0.002699
 -0.000152
 -0.007792
 -0.012886
 -0.005246
 -0.002699
 -0.005246
 -0.012886
 -0.005246
 -0.002699
 -0.007792
 -0.012886
 -0.007792
 -0.002699
 -0.012886
 -0.010339
 -0.002699
 -0.010339
 -0.012886
 -0.010339
 -0.002699
 -0.007792
 -0.010339
 -0.005246
 -0.005246
 -0.012886
 -0.010339
 -0.002699
 -0.005246
 -0.012886
 -0.007792
 -0.002699
 -0.007792
 -0.012886
 -0.010339
 -0.002699
 -0.010339
 -0.010339
 -0.015432
 -0.007792
 -0.002699
 -0.010339
 -0.010339
 -0.007792
 -0.002699
 -0.007792
 -0.010339
 -0.007792
 -0.002699
 -0.005246
 -0.007792
 -0.010339
 -0.000152
 -0.012886
 -0.012886
 -0.007792
 -0.005246
 -0.002699
 -0.012886
 -0.005246
 -0.002699
 -0.005246
 -0.010339
 -0.005246
 -0.000152
 -0.005246
 -0.012886
 -0.007792
 -0.002699
 -0.007792
 -0.012886
 -0.007792
 -0.010339
 -0.012886
 -0.007792
 -0.002699
 -0.007792
 -0.012886
 -0.010339
 -0.002699
 -0.005246
 -0.012886
 -0.010339
  0.002395
 -0.005246
 -0.012886
 -0.002699
 -0.007792
 -0.010339
 -0.010339
 -0.005246
 -0.005246
 -0.012886
 -0.010339
 -0.002699
 -0.007792
  0.004941
  0.010035
  0.012581
  0.007488
  0.015128
  0.025315
  0.017675
  0.022768
  0.027862
  0.030408
  0.027862
  0.030408
  0.040595
  0.043142
  0.035502
  0.048235
  0.045688
  0.035502
  0.038048
  0.058422
  0.048235
  0.045688
  0.050782
  0.055875
  0.053329
  0.045688
  0.048235
  0.058422
  0.050782
  0.045688
  0.048235
  0.055875
  0.050782
  0.045688
  0.053329
  0.045688
  0.040595
  0.035502
  0.045688
  0.048235
  0.038048
  0.038048
  0.043142
  0.048235
  0.045688
  0.035502
  0.040595
  0.045688
  0.045688
  0.038048
  0.027862
  0.038048
  0.025315
  0.027862
  0.035502
  0.030408
  0.020221
  0.017675
  0.027862
  0.025315
  0.020221
  0.027862
  0.022768
  0.020221
  0.012581
  0.017675
  0.010035
  0.007488
  0.012581
  0.017675
  0.010035
  0.007488
  0.007488
 -0.000152
 -0.005246
  0.004941
  0.010035
  0.002395
 -0.012886
 -0.012886
 -0.002699
 -0.005246
 -0.015432
 -0.007792
 -0.005246
 -0.005246
 -0.015432
 -0.005246
 -0.002699
 -0.002699
 -0.007792
 -0.012886
 -0.007792
  0.004941
 -0.005246
 -0.012886
 -0.007792
 -0.005246
 -0.005246
 -0.015432
 -0.005246
 -0.002699
 -0.007792
 -0.012886
 -0.005246
 -0.002699
 -0.007792
 -0.012886
 -0.005246
 -0.002699
 -0.007792
 -0.012886
 -0.005246
 -0.005246
 -0.010339
 -0.012886
 -0.007792
 -0.002699
 -0.010339
 -0.012886
 -0.002699
 -0.007792
 -0.012886
 -0.007792
 -0.000152
 -0.007792
 -0.012886
 -0.007792
 -0.002699
 -0.005246
 -0.010339
 -0.005246
 -0.005246
 -0.005246
 -0.010339
 -0.012886
 -0.002699
 -0.005246
 -0.012886
 -0.002699
 -0.007792
 -0.012886
 -0.007792
 -0.000152
 -0.012886
 -0.007792
 -0.002699
 -0.005246
 -0.015432
 -0.002699
 -0.000152
 -0.005246
 -0.033259
 -0.017979
 -0.051086
 -0.045993
 -0.053633
 -0.053633
 -0.074006
 -0.076553
 -0.056179
 -0.045993
 -0.025619
 -0.030712
  0.004941
  0.022768
  0.101716
  0.195944
  0.297811
  0.366572
  0.389493
   0.45316
   0.47608
  0.549934
  0.549934
  0.608508
  0.618695
  0.710376
   0.70783
  0.756217
  0.771497
  0.858085
  0.858085
  0.881005
  0.883552
  0.911565
  0.903925
  0.954859
  0.962499
  0.959953
  0.949766
  0.962499
  0.957406
  0.934486
  0.939579
  0.883552
  0.875912
  0.865725
  0.868272
  0.809698
  0.802057
  0.756217
   0.76131
  0.679816
  0.672176
  0.608508
  0.613602
  0.524467
  0.465893
  0.392039
  0.313092
  0.267251
   0.20613
   0.19085
  0.111903
  0.096622
  0.010035
  0.007488
  -0.07146
   -0.0791
 -0.196248
 -0.193701
 -0.244635
 -0.249728
 -0.267555
 -0.277742
 -0.259915
 -0.257369
 -0.234448
 -0.239542
 -0.221715
 -0.216621
 -0.191154
 -0.198794
 -0.180968
 -0.175874
 -0.160594
 -0.168234
 -0.165687
 -0.158047
 -0.163141
 -0.165687
 -0.160594
 -0.155501
 -0.163141
 -0.168234
 -0.155501
 -0.158047
 -0.165687
 -0.163141
 -0.155501
 -0.165687
 -0.160594
 -0.152954
 -0.160594
 -0.165687
 -0.160594
 -0.158047
 -0.160594
 -0.165687
 -0.160594
 -0.155501
 -0.163141
 -0.160594
 -0.168234
 -0.160594
 -0.155501
 -0.163141
 -0.170781
 -0.160594
 -0.155501
 -0.160594
 -0.165687
 -0.158047
 -0.155501
 -0.160594
 -0.163141
 -0.163141
 -0.155501
 -0.165687
 -0.165687
 -0.160594
 -0.155501
 -0.147861
 -0.147861
 -0.160594
 -0.160594
 -0.155501
 -0.160594
 -0.165687
 -0.165687
 -0.155501
 -0.163141
 -0.168234
 -0.165687
 -0.155501
 -0.165687
 -0.165687
 -0.158047
 -0.155501
 -0.160594
 -0.168234
 -0.160594
 -0.152954
 -0.160594
 -0.165687
 -0.158047
 -0.155501
 -0.163141
 -0.165687
 -0.160594
 -0.158047
 -0.163141
 -0.163141
 -0.155501
 -0.155501
 -0.163141
 -0.165687
 -0.163141
 -0.155501
 -0.160594
 -0.165687
 -0.163141
 -0.158047
 -0.168234
 -0.160594
 -0.155501
 -0.165687
 -0.155501
 -0.150407
 -0.145314
 -0.147861
 -0.158047
 -0.147861
 -0.135127
 -0.135127
 -0.137674
 -0.130034
  -0.12494
 -0.122394
 -0.127487
 -0.112207
 -0.104567
 -0.104567
 -0.104567
  -0.09438
  -0.08674
 -0.091833
 -0.096927
 -0.081646
   -0.0791
  -0.06382
 -0.068913
 -0.053633
 -0.048539
 -0.045993
 -0.051086
 -0.035806
 -0.030712
 -0.025619
 -0.030712
 -0.012886
 -0.012886
 -0.005246
 -0.012886
  0.017675
  0.017675
  0.022768
  0.017675
  0.032955
  0.035502
  0.035502
  0.040595
  0.058422
  0.050782
  0.058422
  0.068609
  0.073702
  0.091529
  0.088982
  0.094076
  0.101716
  0.106809
  0.096622
  0.104262
  0.109356
  0.119543
  0.111903
  0.127183
  0.132276
   0.13737
  0.134823
  0.139916
  0.142463
   0.15265
   0.14501
  0.147556
   0.15265
   0.16029
  0.150103
   0.16029
  0.165383
  0.157743
   0.15265
  0.165383
  0.170477
  0.162836
  0.162836
  0.165383
  0.173023
  0.170477
  0.162836
  0.170477
  0.173023
   0.16793
   0.16029
  0.170477
   0.16793
  0.157743
   0.15265
   0.15265
  0.155196
  0.165383
   0.16029
   0.14501
  0.150103
   0.15265
  0.147556
  0.142463
  0.139916
  0.142463
  0.139916
  0.132276
   0.13737
  0.142463
  0.129729
  0.127183
  0.134823
  0.127183
  0.114449
  0.114449
  0.116996
  0.109356
  0.104262
  0.109356
  0.106809
  0.099169
  0.099169
  0.106809
  0.088982
  0.083889
  0.083889
  0.078795
  0.081342
  0.076249
  0.076249
  0.073702
  0.055875
  0.063515
  0.066062
  0.055875
  0.048235
  0.053329
  0.053329
  0.043142
  0.038048
  0.043142
  0.045688
  0.032955
  0.025315
  0.025315
  0.027862
  0.022768
  0.017675
  0.020221
  0.035502
  0.012581
  0.007488
  0.012581
  0.010035
  0.017675
  0.015128
  0.010035
  0.017675
  0.017675
  0.012581
  0.007488
  0.012581
  0.020221
  0.010035
 -0.002699
  0.002395
  0.007488
 -0.000152
 -0.002699
  0.002395
  0.007488
  0.010035
  0.004941
 -0.002699
 -0.000152
  0.002395
 -0.007792
 -0.012886
 -0.005246
 -0.002699
 -0.010339
 -0.012886
 -0.012886
 -0.002699
 -0.010339
 -0.010339
 -0.007792
 -0.002699
 -0.005246
 -0.012886
 -0.002699
 -0.002699
 -0.005246
 -0.012886
 -0.010339
 -0.002699
 -0.010339
 -0.010339
 -0.010339
 -0.002699
 -0.005246
 -0.007792
 -0.012886
 -0.007792
 -0.000152
 -0.005246
 -0.012886
 -0.010339
 -0.007792
 -0.005246
 -0.010339
 -0.010339
 -0.005246
 -0.000152
 -0.002699
 -0.010339
 -0.007792
 -0.005246
 -0.010339
 -0.012886
 -0.005246
 -0.002699
 -0.005246
 -0.010339
 -0.007792
 -0.005246
 -0.012886
 -0.012886
 -0.002699
 -0.005246
 -0.012886
 -0.010339
 -0.002699
 -0.007792
 -0.012886
 -0.010339
 -0.007792
 -0.000152
 -0.007792
 -0.012886
 -0.010339
 -0.002699
 -0.007792
 -0.012886
 -0.010339
 -0.005246
 -0.005246
 -0.010339
 -0.005246
 -0.002699
 -0.000152
 -0.007792
 -0.002699
 -0.010339
 -0.012886
 -0.015432
 -0.002699
 -0.005246
 -0.010339
 -0.002699
 -0.005246
 -0.005246
 -0.005246
 -0.012886
 -0.007792
 -0.005246
 -0.012886
 -0.012886
 -0.005246
 -0.002699
 -0.007792
 -0.012886
 -0.007792
 -0.002699
 -0.007792
 -0.005246
 -0.012886
 -0.007792
 -0.002699
 -0.007792
 -0.012886
 -0.007792
 -0.005246
 -0.007792
 -0.015432
 -0.010339
 -0.005246
 -0.010339
 -0.012886
 -0.012886
 -0.002699
 -0.007792
 -0.012886
 -0.007792
 -0.002699
 -0.005246
 -0.007792
 -0.010339
 -0.002699
 -0.012886
 -0.010339
 -0.002699
 -0.010339
 -0.010339
 -0.012886
 -0.007792
 -0.002699
 -0.005246
 -0.005246
 -0.002699
 -0.007792
 -0.012886
 -0.005246
 -0.000152
 -0.005246
 -0.012886
 -0.007792
 -0.002699
 -0.007792
 -0.012886
 -0.007792
 -0.002699
 -0.012886
 -0.010339
 -0.002699
 -0.005246
 -0.012886
 -0.007792
 -0.002699
 -0.007792
 -0.015432
 -0.010339
 -0.007792
 -0.010339
 -0.012886
 -0.007792
 -0.002699
 -0.010339
 -0.012886
 -0.010339
  0.002395
 -0.010339
 -0.010339
 -0.005246
 -0.007792
 -0.010339
 -0.007792
 -0.005246
 -0.012886
 -0.005246
 -0.000152
 -0.007792
 -0.012886
 -0.002699
 -0.005246
 -0.012886
 -0.007792
 -0.000152
 -0.005246
 -0.010339
 -0.012886
 -0.002699
 -0.007792
 -0.012886
 -0.007792
 -0.007792
 -0.007792
 -0.010339
 -0.007792
  0.002395
 -0.012886
 -0.012886
 -0.007792
 -0.000152
 -0.005246
 -0.012886
 -0.005246
 -0.002699
 -0.012886
 -0.005246
 -0.002699
 -0.007792
 -0.015432
 -0.007792
 -0.002699
 -0.007792
 -0.012886
 -0.010339
 -0.002699
 -0.007792
 -0.010339
 -0.012886
 -0.007792
 -0.002699
 -0.007792
 -0.012886
 -0.007792
 -0.002699
 -0.005246
 -0.017979
 -0.002699
 -0.012886
 -0.012886
 -0.007792
 -0.005246
 -0.005246
 -0.012886
 -0.007792
 -0.002699
 -0.005246
 -0.007792
 -0.002699
 -0.005246
 -0.012886
 -0.012886
 -0.002699
 -0.012886
 -0.007792
 -0.002699
 -0.010339
 -0.015432
 -0.010339
 -0.005246
 -0.015432
 -0.007792
 -0.002699
 -0.007792
 -0.012886
 -0.012886
 -0.000152
 -0.012886
 -0.007792
 -0.007792
 -0.000152
 -0.010339
 -0.012886
 -0.007792
 -0.002699
 -0.010339
 -0.005246
 -0.012886
 -0.010339
 -0.000152
 -0.007792
 -0.005246
 -0.012886
 -0.012886
 -0.005246
 -0.002699
 -0.005246
 -0.005246
 -0.012886
 -0.007792
 -0.007792
  0.002395
 -0.005246
 -0.010339
 -0.007792
 -0.002699
 -0.007792
 -0.010339
 -0.015432
 -0.005246
 -0.007792
 -0.002699
 -0.010339
 -0.005246
 -0.012886
 -0.005246
 -0.002699
 -0.010339
 -0.005246
 -0.012886
 -0.005246
 -0.005246
 -0.002699
  0.004941
 -0.005246
  0.007488
  0.012581
  0.015128
  0.012581
  0.020221
  0.015128
  0.017675
  0.022768
  0.038048
  0.035502
  0.030408
  0.025315
  0.038048
  0.040595
  0.048235
  0.048235
  0.043142
  0.038048
  0.050782
  0.050782
  0.058422
  0.050782
  0.045688
  0.050782
  0.053329
  0.058422
  0.048235
  0.050782
  0.045688
  0.053329
  0.055875
  0.048235
  0.053329
  0.040595
  0.040595
  0.050782
  0.048235
  0.045688
  0.035502
  0.035502
  0.043142
  0.045688
  0.035502
  0.043142
  0.038048
  0.043142
  0.048235
  0.043142
  0.035502
  0.027862
  0.035502
  0.022768
  0.025315
  0.027862
  0.032955
  0.027862
  0.022768
  0.017675
  0.017675
  0.022768
  0.025315
  0.022768
  0.017675
  0.002395
  0.015128
  0.015128
  0.010035
  0.007488
  0.012581
  0.010035
  0.017675
 -0.000152
 -0.002699
 -0.002699
  0.002395
  0.007488
 -0.005246
 -0.012886
 -0.005246
 -0.007792
 -0.002699
 -0.005246
 -0.005246
 -0.012886
 -0.010339
 -0.000152
 -0.002699
 -0.007792
 -0.012886
 -0.007792
 -0.005246
 -0.007792
 -0.005246
 -0.012886
 -0.007792
 -0.002699
 -0.002699
 -0.010339
 -0.010339
 -0.012886
 -0.007792
 -0.002699
 -0.005246
 -0.010339
 -0.010339
 -0.002699
 -0.010339
 -0.012886
 -0.005246
  0.002395
 -0.007792
 -0.012886
 -0.007792
 -0.002699
 -0.007792
 -0.010339
 -0.012886
 -0.010339
 -0.002699
 -0.007792
 -0.012886
 -0.012886
 -0.000152
 -0.007792
 -0.012886
 -0.007792
 -0.005246
 -0.000152
 -0.007792
 -0.012886
 -0.012886
 -0.000152
 -0.005246
 -0.012886
 -0.005246
 -0.005246
 -0.012886
 -0.010339
 -0.005246
 -0.005246
 -0.010339
 -0.012886
 -0.000152
 -0.010339
 -0.012886
 -0.010339
 -0.000152
 -0.012886
 -0.007792
 -0.020526
 -0.025619
 -0.045993
 -0.045993
 -0.051086
 -0.058726
 -0.076553
 -0.066366
 -0.048539
 -0.030712
 -0.030712
 -0.005246
  0.002395
  0.088982
  0.096622
  0.287625
  0.302905
  0.384399
  0.384399
  0.473534
  0.478627
  0.552481
  0.547388
  0.616149
  0.623789
  0.705283
   0.70019
   0.76131
   0.76131
  0.855538
  0.860632
  0.883552
  0.878458
  0.901379
  0.909019
  0.957406
  0.952313
  0.954859
  0.962499
  0.957406
  0.952313
  0.937032
  0.944673
  0.883552
  0.873365
  0.870818
  0.875912
  0.809698
  0.781684
   0.76131
  0.705283
  0.679816
  0.621242
  0.603415
  0.532108
  0.527014
  0.399679
  0.384399
  0.279985
  0.272344
  0.193397
   0.18321
  0.106809
  0.106809
  0.004941
 -0.002699
 -0.074006
 -0.068913
 -0.198794
 -0.203888
 -0.247182
 -0.242088
 -0.272649
 -0.280289
 -0.259915
 -0.249728
 -0.236995
 -0.239542
 -0.214075
 -0.216621
 -0.208981
 -0.196248
 -0.175874
 -0.186061
 -0.168234
 -0.160594
 -0.160594
 -0.168234
 -0.160594
 -0.155501
 -0.160594
 -0.163141
 -0.160594
 -0.155501
 -0.168234
 -0.165687
 -0.163141
 -0.155501
 -0.160594
 -0.163141
 -0.160594
 -0.155501
 -0.158047
 -0.168234
 -0.160594
 -0.155501
 -0.163141
 -0.163141
 -0.160594
 -0.158047
 -0.160594
 -0.170781
 -0.158047
 -0.155501
 -0.152954
 -0.163141
 -0.168234
 -0.163141
 -0.152954
 -0.158047
 -0.168234
 -0.160594
 -0.160594
 -0.150407
 -0.155501
 -0.165687
 -0.160594
 -0.155501
 -0.163141
 -0.165687
 -0.160594
 -0.155501
 -0.160594
 -0.168234
 -0.165687
 -0.160594
 -0.155501
 -0.158047
 -0.160594
 -0.160594
 -0.155501
 -0.160594
 -0.168234
 -0.158047
 -0.158047
 -0.165687
 -0.165687
 -0.158047
 -0.158047
 -0.158047
 -0.168234
 -0.160594
 -0.155501
 -0.158047
 -0.165687
 -0.160594
 -0.155501
 -0.158047
 -0.165687
 -0.160594
 -0.155501
 -0.155501
 -0.160594
 -0.170781
 -0.160594
 -0.155501
 -0.160594
 -0.168234
 -0.160594
 -0.155501
 -0.160594
 -0.165687
 -0.165687
 -0.158047
 -0.160594
 -0.155501
 -0.155501
 -0.150407
 -0.145314
 -0.147861
 -0.152954
 -0.142767
 -0.130034
 -0.135127
  -0.14022
  -0.13258
  -0.12494
 -0.122394
  -0.12494
   -0.1173
 -0.104567
  -0.10202
 -0.107113
 -0.091833
  -0.08674
  -0.08674
 -0.096927
 -0.081646
   -0.0791
 -0.058726
  -0.06382
 -0.056179
 -0.053633
 -0.035806
 -0.051086
 -0.035806
 -0.033259
 -0.025619
 -0.033259
 -0.015432
 -0.012886
 -0.010339
 -0.012886
  0.012581
  0.017675
  0.025315
  0.022768
  0.027862
  0.045688
  0.038048
  0.050782
  0.055875
  0.060969
  0.055875
  0.071155
  0.073702
  0.088982
  0.086436
  0.099169
  0.109356
  0.099169
  0.094076
  0.109356
  0.114449
  0.111903
  0.114449
  0.129729
  0.132276
   0.13737
   0.13737
   0.14501
  0.139916
   0.14501
  0.150103
  0.157743
  0.150103
  0.157743
  0.162836
   0.16029
   0.15265
   0.16793
  0.173023
   0.16793
  0.165383
  0.170477
  0.173023
   0.16793
  0.162836
  0.165383
  0.173023
   0.16793
  0.162836
   0.16793
   0.16029
  0.165383
  0.157743
   0.15265
  0.157743
  0.162836
  0.165383
  0.157743
   0.14501
  0.142463
   0.15265
  0.150103
   0.13737
  0.132276
  0.139916
  0.139916
   0.14501
  0.139916
  0.124636
  0.129729
  0.129729
  0.127183
  0.111903
  0.114449
  0.111903
  0.116996
  0.109356
  0.106809
  0.099169
  0.106809
  0.106809
  0.096622
  0.086436
  0.088982
  0.086436
  0.081342
  0.081342
  0.068609
  0.071155
  0.068609
  0.063515
  0.058422
  0.066062
  0.053329
  0.053329
  0.045688
  0.053329
  0.048235
  0.043142
  0.035502
  0.043142
  0.035502
  0.030408
  0.017675
  0.022768
  0.027862
  0.027862
  0.017675
  0.012581
  0.015128
  0.004941
  0.015128
  0.020221
  0.010035
  0.007488
  0.010035
  0.020221
  0.012581
  0.015128
  0.022768
  0.010035
  0.004941
  0.010035
  0.007488
  0.004941
 -0.002699
  0.004941
  0.010035
  0.004941
 -0.005246
  0.007488
  0.007488
  0.010035
 -0.000152
 -0.012886
 -0.007792
 -0.005246
 -0.012886
 -0.015432
 -0.007792
 -0.005246
 -0.005246
 -0.012886
 -0.002699
 -0.005246
 -0.010339
 -0.010339
 -0.002699
 -0.005246
 -0.015432
 -0.007792
 -0.000152
 -0.005246
 -0.007792
 -0.002699
 -0.007792
 -0.012886
 -0.007792
 -0.002699
 -0.007792
 -0.015432
 -0.007792
 -0.000152
 -0.010339
 -0.012886
 -0.005246
 -0.010339
 -0.010339
 -0.010339
 -0.002699
 -0.007792
 -0.012886
 -0.007792
 -0.002699
 -0.007792
 -0.012886
 -0.010339
 -0.005246
 -0.010339
 -0.012886
 -0.005246
 -0.010339
 -0.015432
 -0.005246
 -0.005246
 -0.010339
 -0.010339
 -0.002699
 -0.012886
 -0.012886
 -0.007792
  0.002395
 -0.012886
 -0.015432
 -0.007792
 -0.000152
 -0.012886
 -0.012886
 -0.007792
 -0.002699
 -0.012886
 -0.010339
 -0.005246
 -0.010339
 -0.010339
 -0.007792
 -0.007792
  0.002395
 -0.005246
 -0.012886
 -0.010339
 -0.000152
 -0.007792
 -0.012886
 -0.005246
 -0.002699
 -0.005246
 -0.012886
 -0.007792
  0.002395
 -0.007792
 -0.010339
 -0.007792
 -0.002699
 -0.007792
 -0.015432
 -0.007792
 -0.005246
 -0.005246
 -0.015432
 -0.007792
 -0.002699
 -0.010339
 -0.017979
 -0.007792
 -0.005246
 -0.005246
 -0.015432
 -0.007792
 -0.002699
 -0.005246
 -0.002699
 -0.002699
 -0.005246
 -0.012886
 -0.007792
 -0.002699
 -0.005246
 -0.012886
 -0.005246
 -0.010339
 -0.012886
 -0.007792
 -0.010339
 -0.012886
 -0.007792
 -0.002699
 -0.005246
 -0.017979
 -0.007792
 -0.002699
 -0.005246
 -0.012886
 -0.007792
 -0.002699
 -0.005246
 -0.015432
 -0.002699
 -0.005246
 -0.012886
 -0.007792
 -0.005246
 -0.012886
 -0.012886
 -0.007792
 -0.002699
 -0.005246
 -0.012886
 -0.007792
  0.002395
 -0.005246
 -0.010339
 -0.002699
 -0.010339
 -0.012886
 -0.007792
 -0.005246
 -0.010339
 -0.012886
 -0.010339
 -0.012886
 -0.007792
 -0.012886
 -0.012886
 -0.002699
 -0.005246
 -0.012886
 -0.005246
 -0.005246
 -0.012886
 -0.007792
 -0.000152
 -0.005246
 -0.012886
 -0.005246
 -0.002699
 -0.007792
 -0.012886
 -0.007792
 -0.002699
 -0.010339
 -0.007792
 -0.002699
 -0.005246
 -0.012886
 -0.007792
 -0.002699
 -0.010339
 -0.012886
 -0.007792
 -0.000152
 -0.005246
 -0.002699
 -0.002699
 -0.010339
 -0.012886
 -0.005246
 -0.002699
 -0.005246
 -0.010339
 -0.007792
 -0.002699
 -0.010339
 -0.012886
 -0.007792
 -0.007792
 -0.007792
 -0.012886
 -0.010339
 -0.010339
 -0.002699
 -0.012886
 -0.012886
 -0.007792
 -0.007792
 -0.012886
 -0.007792
 -0.002699
 -0.005246
 -0.015432
 -0.007792
 -0.002699
 -0.005246
 -0.010339
 -0.007792
 -0.005246
 -0.007792
 -0.012886
 -0.007792
  0.002395
 -0.010339
 -0.012886
 -0.012886
 -0.002699
 -0.007792
 -0.012886
 -0.010339
 -0.002699
 -0.007792
 -0.012886
 -0.007792
 -0.002699
 -0.005246
 -0.012886
 -0.007792
 -0.000152
 -0.005246
