5000
1000
 -0.010047
 -0.010047
 -0.008774
 -0.011956
  -0.00941
 -0.008774
 -0.010683
 -0.010683
 -0.010047
 -0.010683
 -0.010683
  -0.01132
  -0.01132
 -0.008774
 -0.010683
 -0.010683
 -0.010683
  -0.00941
 -0.010047
 -0.010047
 -0.011956
 -0.010683
 -0.010047
 -0.010683
 -0.010047
 -0.010683
  -0.00941
 -0.010047
  -0.01132
  -0.00941
 -0.010047
 -0.011956
 -0.010683
 -0.010047
 -0.010047
  -0.00941
  -0.01132
 -0.010683
  -0.00941
 -0.010047
  -0.01132
 -0.008774
 -0.008774
  -0.00941
 -0.010683
  -0.00941
 -0.010047
 -0.010683
 -0.010047
 -0.008774
 -0.010047
 -0.010047
 -0.010683
 -0.008774
  -0.01132
  -0.01132
 -0.010683
  -0.00941
 -0.010047
 -0.011956
 -0.010683
 -0.008774
 -0.010683
 -0.010683
 -0.010683
 -0.008774
 -0.010683
  -0.01132
 -0.010047
 -0.010047
 -0.010683
  -0.01132
 -0.010047
 -0.010047
 -0.010683
 -0.010683
 -0.010047
 -0.008774
 -0.010683
  -0.01132
 -0.010683
 -0.008774
 -0.010047
 -0.011956
  -0.01132
 -0.010047
 -0.010683
 -0.010683
  -0.01132
  -0.00941
 -0.010683
 -0.010047
  -0.01132
 -0.010683
 -0.008774
 -0.010047
  -0.01132
 -0.010047
  -0.00941
 -0.010047
 -0.010047
 -0.010683
 -0.008774
 -0.010683
 -0.010683
 -0.010683
 -0.008774
 -0.010683
 -0.011956
 -0.010047
  -0.00941
 -0.010047
 -0.011956
  -0.01132
 -0.010047
 -0.010683
 -0.011956
  -0.00941
 -0.010683
 -0.010047
  -0.01132
 -0.010047
 -0.010683
 -0.010047
 -0.010683
 -0.010047
 -0.010047
  -0.01132
 -0.010683
 -0.010047
 -0.010683
 -0.010683
 -0.010683
 -0.008774
 -0.010047
 -0.011956
 -0.010683
 -0.008774
 -0.010047
 -0.010683
 -0.010047
 -0.010683
 -0.010683
 -0.010683
 -0.008774
 -0.010683
  -0.01132
 -0.020231
 -0.010047
 -0.018958
 -0.011956
 -0.010683
 -0.010683
 -0.020231
 -0.013229
 -0.010683
 -0.000499
 -0.010047
  0.009049
  0.009049
  0.009049
 -0.001136
  0.007776
  0.009049
  0.018596
   0.01796
  0.016687
  0.009049
  0.019233
  0.018596
  0.017323
  0.018596
  0.018596
   0.01796
  0.018596
  0.016687
  0.018596
  0.019233
   0.01796
  0.016687
  0.019233
  0.019233
  0.026235
  0.027508
  0.027508
  0.028781
  0.028781
  0.028144
  0.026871
  0.027508
  0.026871
  0.029417
  0.026871
  0.027508
  0.027508
  0.018596
  0.017323
  0.017323
  0.028781
  0.019233
  0.018596
   0.01796
  0.019233
  0.019233
  0.028144
  0.017323
  0.018596
  0.018596
  0.019233
  0.008412
  0.008412
  0.009049
  0.018596
  0.007139
  0.008412
  0.008412
  0.009685
 -0.001136
 -0.001136
   0.00523
  0.002047
 -0.001772
  -0.00941
 -0.010683
 -0.010047
 -0.001772
 -0.010047
 -0.008774
 -0.010047
 -0.011956
  -0.00941
 -0.008774
 -0.010047
 -0.010683
 -0.010047
 -0.010047
 -0.008774
 -0.010683
 -0.010047
 -0.010047
 -0.010683
  -0.01132
 -0.010683
 -0.010047
 -0.010047
 -0.010683
 -0.010683
 -0.010047
  -0.01132
  -0.00941
 -0.010047
 -0.010683
 -0.011956
 -0.010047
 -0.010683
 -0.010683
 -0.010047
 -0.008774
  -0.00941
 -0.010683
 -0.010683
  -0.00941
  -0.01132
  -0.00941
 -0.010683
 -0.010047
 -0.010683
  -0.01132
 -0.010683
 -0.010047
 -0.010047
  -0.01132
 -0.010683
 -0.010047
 -0.010047
 -0.010683
 -0.010047
  -0.00941
 -0.010047
 -0.010683
 -0.010683
 -0.010047
 -0.010047
 -0.010047
  -0.00941
 -0.008774
 -0.010683
 -0.010683
 -0.010047
 -0.010047
  -0.01132
 -0.010683
 -0.008774
  -0.00941
  -0.01132
 -0.010683
  -0.00941
  -0.00941
  -0.01132
 -0.010047
   0.00332
 -0.015775
 -0.005591
 -0.004318
 -0.013229
 -0.007501
 -0.016412
 -0.037417
 -0.039963
 -0.066697
 -0.050784
 -0.074971
 -0.050147
 -0.143715
 -0.088975
 -0.286294
 -0.118891
 -0.202274
 -0.145625
 -0.232827
 -0.146898
 -0.222643
  -0.13735
 -0.204184
 -0.116345
 -0.203547
 -0.127802
 -0.183815
 -0.125256
 -0.222643
 -0.097886
 -0.118254
  -0.06797
 -0.097886
 -0.059695
 -0.106797
 -0.056512
 -0.057785
 -0.050784
 -0.048874
 -0.028506
  -0.00941
 -0.000499
  0.039601
  0.031963
  0.031963
  0.076519
  0.057424
  0.079702
  0.054241
  0.126167
  0.080338
  0.140807
  0.082248
  0.159266
  0.086067
  0.216553
  0.098161
  0.210187
  0.115347
  0.201913
  0.106435
  0.192365
   0.11471
  0.212097
   0.11662
  0.191729
  0.094342
  0.218462
  0.126167
  0.211461
  0.066335
  0.045967
  0.046603
 -0.001136
  0.026235
   -0.0406
  0.009049
 -0.049511
  0.007776
 -0.059058
  0.007139
 -0.059058
  0.017323
  0.015414
  0.007776
  0.009685
  0.007776
  0.006503
  0.008412
  0.009685
  0.008412
  0.007776
  0.007776
  0.009049
  0.008412
  0.007776
  0.007776
  0.009049
  0.009049
  0.007139
  0.007776
  0.009049
  0.008412
  0.006503
  0.009049
  0.009049
  0.008412
  0.007139
  0.008412
  0.009685
  0.008412
  0.009049
  0.007139
  0.009685
  0.008412
  0.007776
  0.007139
  0.009685
  0.008412
  0.007776
  0.007776
  0.007776
  0.009049
  0.007139
  0.007776
  0.008412
  0.009049
  0.008412
  0.007776
  0.007776
  0.009685
  0.007776
  0.007776
  0.008412
  0.009049
  0.009049
  0.006503
  0.007776
  0.008412
  0.008412
  0.008412
  0.008412
  0.009049
  0.008412
  0.007139
  0.008412
  0.009049
  0.009049
  0.007139
  0.008412
  0.009049
  0.007776
  0.008412
  0.008412
  0.008412
  0.008412
  0.009049
  0.010322
  0.008412
  0.007139
  0.009049
  0.009049
  0.008412
  0.007139
  0.009049
  0.009049
  0.007776
  0.008412
  0.008412
  0.009049
  0.009685
  0.009049
  0.008412
  0.007776
  0.009685
  0.008412
 -0.001136
  0.007139
  0.007776
  0.007139
  0.007139
  0.009685
  0.007139
  0.008412
  0.009049
  0.017323
  0.007776
  0.009685
  0.008412
  0.009049
  0.009685
  0.007776
  0.009049
  0.019233
  0.007776
  0.008412
  0.010322
  0.019233
  0.007776
  0.007139
  0.009685
  0.007776
 -0.001772
  0.008412
  0.008412
  0.007139
  0.007776
  0.019233
  0.009049
  0.007139
  0.012231
  0.012868
  0.008412
  0.009049
  0.017323
  0.018596
   0.01796
  0.009685
  0.018596
  0.017323
  0.016687
  0.009049
  0.007776
  0.009049
  0.017323
   0.01796
  0.019233
  0.008412
  0.015414
  0.018596
  0.019233
   0.01796
   0.01796
  0.009049
  0.018596
  0.018596
  0.019869
  0.019233
   0.01796
  0.018596
  0.019869
  0.019233
  0.028144
   0.01796
  0.018596
  0.018596
   0.01796
  0.016687
   0.01796
  0.018596
  0.017323
  0.016687
   0.01796
  0.018596
  0.019233
   0.01796
  0.019233
   0.01796
  0.034509
  0.028144
  0.028781
  0.026871
  0.026871
  0.027508
  0.029417
  0.027508
  0.028781
  0.027508
  0.038965
  0.028144
  0.027508
  0.028781
  0.028781
  0.026871
  0.057424
  0.037692
  0.037055
  0.037055
  0.037055
  0.037055
  0.044694
  0.037055
  0.038328
  0.037692
  0.046603
  0.037055
  0.047876
  0.037692
  0.038328
  0.039601
   0.04724
  0.037692
   0.04342
  0.038965
  0.038328
  0.037692
   0.03069
  0.036419
  0.029417
  0.026871
  0.028144
  0.038328
  0.028781
  0.027508
  0.028781
  0.028781
  0.019233
  0.017323
  0.018596
  0.019233
  0.017323
  0.026871
   0.01796
  0.019233
  0.017323
  0.016687
  0.018596
   0.01796
  0.007139
  0.008412
  0.009049
  0.009049
  0.007776
   0.01796
  0.009049
  0.008412
  0.009049
  0.009049
  0.008412
  0.008412
 -0.000499
  0.000774
 -0.000499
 -0.001772
   0.00332
  0.004593
 -0.000499
 -0.001136
 -0.000499
 -0.010683
 -0.010683
 -0.008774
 -0.010683
 -0.011956
  -0.01132
 -0.010683
 -0.000499
 -0.010047
 -0.008774
 -0.010683
  -0.01132
  -0.01132
 -0.010047
 -0.010047
  -0.01132
  -0.00941
 -0.010047
 -0.010683
 -0.010683
  -0.00941
 -0.010047
 -0.010683
 -0.010047
 -0.008774
 -0.010047
  -0.01132
 -0.010683
 -0.008774
 -0.010683
 -0.010047
  -0.00941
 -0.010047
  -0.01132
  -0.00941
 -0.008774
 -0.010683
  -0.01132
 -0.008774
  -0.00941
 -0.010047
  -0.00941
 -0.008774
 -0.010683
 -0.010047
 -0.010047
 -0.010047
 -0.010683
 -0.010683
  -0.00941
 -0.010683
 -0.010047
 -0.008774
 -0.010047
  -0.01132
 -0.010683
 -0.010047
 -0.010047
  -0.01132
  -0.00941
 -0.010047
 -0.010683
 -0.010683
 -0.008774
 -0.010683
  -0.01132
 -0.010047
 -0.010683
 -0.010683
 -0.010047
 -0.010047
 -0.008774
 -0.008774
  -0.01132
 -0.010047
  -0.00941
 -0.010047
 -0.010683
 -0.010047
  -0.00941
 -0.010047
  -0.01132
 -0.010047
 -0.010047
 -0.010683
  -0.01132
 -0.010047
 -0.010047
  -0.00941
  -0.01132
  -0.00941
 -0.008774
 -0.010047
 -0.010683
 -0.010683
 -0.010683
 -0.010047
  -0.01132
  -0.01132
 -0.008774
  -0.00941
 -0.011956
 -0.010683
 -0.010683
  -0.00941
 -0.010683
 -0.010683
  -0.01132
  -0.00941
 -0.010047
  -0.01132
 -0.010047
 -0.008774
 -0.010047
  -0.01132
 -0.010047
 -0.010047
 -0.010047
 -0.010047
  -0.01132
 -0.010683
  -0.00941
 -0.010683
 -0.010683
  -0.00941
 -0.010683
 -0.010683
 -0.010683
 -0.010683
  -0.01132
 -0.010047
  -0.00941
 -0.010047
  -0.01132
 -0.010047
 -0.010047
 -0.010683
 -0.010683
 -0.010683
 -0.011956
 -0.010683
  -0.00941
  -0.01132
 -0.010683
 -0.010683
  -0.00941
 -0.010047
  -0.00941
 -0.010047
 -0.010047
 -0.010047
  -0.01132
 -0.010683
  -0.00941
 -0.010683
 -0.010683
 -0.010683
  -0.00941
 -0.010683
 -0.010047
 -0.010047
 -0.010683
  -0.01132
 -0.010683
  -0.00941
 -0.010683
  -0.01132
 -0.010047
 -0.010047
 -0.010047
 -0.010683
 -0.010683
 -0.008774
 -0.010047
  -0.01132
 -0.010047
 -0.010683
 -0.010683
 -0.012593
 -0.010047
 -0.010047
 -0.010683
 -0.011956
 -0.010683
 -0.008137
 -0.010047
 -0.010683
  -0.01132
 -0.010683
  -0.00941
 -0.010047
 -0.010683
 -0.010683
  -0.00941
  -0.00941
  -0.01132
 -0.010683
 -0.010047
 -0.010047
 -0.010683
 -0.008774
  -0.00941
 -0.010047
 -0.010683
 -0.010047
 -0.010683
 -0.010047
 -0.010683
 -0.010683
 -0.010047
 -0.010683
 -0.010047
 -0.010683
  -0.00941
  -0.00941
 -0.008774
 -0.010683
 -0.010683
  -0.00941
 -0.010683
 -0.010683
 -0.010683
  -0.00941
 -0.010047
  -0.01132
  -0.00941
  -0.00941
 -0.010047
 -0.010683
 -0.010047
 -0.010047
  -0.01132
 -0.010047
  -0.00941
 -0.010683
  -0.01132
 -0.010683
 -0.010047
 -0.010683
  -0.01132
 -0.010683
  -0.00941
 -0.010047
 -0.010683
 -0.010047
 -0.010047
 -0.010683
  -0.01132
 -0.010047
  -0.00941
 -0.010047
  -0.01132
 -0.010047
 -0.010047
 -0.010683
 -0.011956
  -0.00941
  -0.00941
 -0.010047
  -0.01132
 -0.010683
  -0.00941
  -0.00941
  -0.01132
 -0.010047
  -0.00941
 -0.010683
  -0.01132
  -0.01132
 -0.008774
 -0.010683
 -0.010683
 -0.010683
  -0.00941
 -0.010683
 -0.010683
  -0.00941
 -0.010047
  -0.01132
 -0.010683
 -0.010047
 -0.010047
 -0.010683
 -0.010683
 -0.010047
 -0.010683
  -0.01132
 -0.010683
 -0.010047
 -0.010683
 -0.010683
 -0.010683
 -0.010047
 -0.010683
 -0.010683
  -0.00941
 -0.008774
 -0.010047
 -0.010683
 -0.010683
 -0.008137
 -0.010047
 -0.010047
 -0.010047
 -0.010047
 -0.010047
  -0.00941
 -0.010683
 -0.020868
 -0.010047
 -0.020231
  -0.01132
 -0.010683
  -0.00941
 -0.020231
 -0.012593
 -0.010683
 -0.000499
 -0.012593
  0.009049
  0.010322
  0.007776
 -0.003045
  0.007139
  0.009049
   0.01796
   0.01796
  0.018596
  0.009685
  0.017323
  0.018596
  0.018596
  0.017323
  0.016687
  0.018596
   0.01796
   0.01796
  0.017323
  0.019233
   0.01796
  0.017323
  0.018596
  0.019233
  0.027508
  0.026235
  0.027508
  0.029417
  0.027508
  0.028144
  0.029417
  0.027508
  0.027508
  0.027508
  0.028781
  0.028144
  0.028144
  0.019233
   0.01796
   0.01605
  0.029417
  0.019233
  0.018596
  0.017323
  0.019869
  0.019233
  0.027508
   0.01796
  0.018596
  0.016687
   0.01796
  0.009685
  0.009049
  0.012868
  0.012231
  0.009049
  0.008412
  0.009049
  0.000774
 -0.001136
 -0.000499
  0.008412
  0.000137
  0.000137
  -0.01132
  -0.01132
  -0.00941
  0.000137
 -0.010683
 -0.010683
 -0.008774
 -0.010683
  -0.00941
  -0.00941
 -0.010047
 -0.010683
  -0.00941
 -0.010683
 -0.010047
  -0.01132
  -0.00941
  -0.00941
 -0.010047
 -0.010047
 -0.010683
 -0.010683
  -0.00941
  -0.00941
  -0.01132
 -0.010683
 -0.010683
 -0.008774
 -0.010047
 -0.010683
 -0.010047
  -0.00941
 -0.010683
 -0.010683
 -0.010683
 -0.010683
 -0.010047
 -0.010683
  -0.01132
 -0.010683
 -0.010683
  -0.01132
  -0.00941
  -0.00941
 -0.008774
  -0.01132
 -0.010683
  -0.00941
 -0.010683
 -0.010683
 -0.010047
 -0.010047
 -0.010683
  -0.01132
 -0.010683
 -0.010047
 -0.010047
 -0.010683
  -0.01132
 -0.008774
 -0.010683
 -0.010683
  -0.00941
 -0.008774
 -0.010683
 -0.010683
  -0.01132
 -0.010047
 -0.010683
  -0.00941
  -0.01132
 -0.010683
  -0.00941
 -0.010683
  -0.01132
 -0.010047
 -0.010047
  0.003957
 -0.017048
 -0.003045
 -0.008774
 -0.000499
 -0.021504
 -0.003045
 -0.019595
 -0.041873
 -0.041236
  -0.06797
 -0.048874
 -0.078154
 -0.047601
 -0.144352
 -0.088975
 -0.290114
 -0.116345
 -0.202911
 -0.146261
   -0.2341
 -0.146261
 -0.223916
  -0.13544
 -0.203547
 -0.116345
 -0.202274
 -0.127166
 -0.184452
 -0.126529
 -0.222643
 -0.097249
 -0.116981
 -0.068606
 -0.096613
 -0.066697
 -0.088975
 -0.057149
 -0.052057
 -0.050147
 -0.032961
 -0.013229
  -0.00941
  0.040238
  0.030054
  0.036419
  0.029417
  0.091796
  0.051059
   0.08543
  0.050422
  0.132533
  0.077792
  0.144626
  0.077792
  0.161812
  0.086067
  0.220372
  0.095615
  0.210824
   0.11662
  0.202549
  0.103253
  0.191729
  0.114074
  0.212734
  0.117256
  0.192365
  0.094342
  0.219735
  0.124258
  0.212734
  0.065699
  0.046603
   0.04724
 -0.001772
  0.026871
 -0.029779
 -0.014502
 -0.016412
 -0.035507
 -0.012593
 -0.046328
  0.005866
  0.019233
  0.009049
  0.008412
  0.008412
  0.009049
  0.007139
  0.007776
  0.007139
  0.008412
  0.009049
  0.007776
  0.007139
  0.009049
  0.010322
  0.009049
  0.009049
  0.007776
  0.008412
  0.008412
  0.009049
  0.007776
  0.008412
  0.008412
  0.009685
  0.007776
  0.007776
  0.007776
  0.009049
  0.008412
  0.007139
  0.008412
  0.009049
  0.008412
  0.007776
  0.008412
  0.009049
  0.009685
  0.009049
  0.007776
  0.007776
  0.009049
  0.009049
  0.007139
  0.007139
  0.009049
  0.009049
  0.008412
  0.007139
  0.008412
  0.010322
  0.006503
  0.008412
  0.009685
  0.008412
  0.007776
  0.007139
  0.009049
  0.009049
  0.009049
  0.009049
  0.006503
  0.008412
  0.008412
  0.007776
  0.007139
  0.007776
  0.008412
  0.007776
  0.009049
  0.008412
  0.008412
  0.007139
  0.007776
  0.009049
  0.009049
  0.007139
  0.009049
  0.008412
  0.008412
  0.008412
  0.009049
  0.008412
  0.006503
  0.009049
  0.009049
  0.007776
  0.008412
  0.009049
  0.008412
  0.006503
  0.008412
  0.009049
  0.009049
  0.007139
 -0.000499
  0.008412
  0.008412
  0.007776
  0.007776
  0.009049
  0.009049
  0.007139
  0.008412
  0.017323
  0.008412
  0.009049
  0.008412
  0.008412
  0.006503
  0.009049
  0.009049
  0.017323
  0.009049
  0.008412
  0.008412
  0.019233
  0.007139
  0.008412
  0.009049
  0.003957
   0.00332
  0.008412
  0.008412
  0.006503
  0.015414
  0.010322
  0.009049
  0.009049
  0.016687
  0.009685
  0.009685
  0.007776
  0.017323
  0.019233
  0.016687
  0.007139
  0.016687
  0.019233
  0.017323
  0.007139
  0.007139
  0.009049
  0.018596
   0.01796
  0.019233
  0.008412
  0.017323
   0.01796
  0.019233
  0.018596
  0.016687
  0.009685
  0.019233
  0.017323
  0.018596
  0.019869
  0.018596
   0.01796
  0.019233
  0.020506
  0.025598
  0.017323
  0.019233
  0.019233
  0.016687
  0.016687
  0.019233
  0.018596
  0.018596
  0.019233
  0.017323
  0.017323
  0.018596
  0.018596
   0.01796
  0.016687
  0.038328
  0.029417
  0.028144
  0.026871
  0.028144
  0.029417
  0.028781
  0.026871
  0.027508
  0.029417
  0.038328
  0.026871
  0.027508
  0.028781
  0.027508
  0.027508
  0.056151
  0.037692
  0.037055
  0.035146
  0.036419
  0.037692
   0.04724
  0.035782
  0.037692
  0.039601
   0.04342
  0.040874
  0.042147
  0.039601
  0.038328
  0.044694
  0.038965
   0.04724
  0.038965
  0.037692
  0.037692
  0.037055
  0.028144
  0.037055
  0.028144
  0.027508
  0.026235
  0.037055
  0.028144
  0.028781
  0.028781
  0.026871
  0.019233
  0.018596
   0.01796
  0.018596
  0.019869
  0.028144
   0.01796
  0.018596
  0.019233
  0.019233
  0.016687
  0.017323
  0.009049
  0.009685
  0.006503
  0.009049
  0.009049
  0.017323
  0.009685
  0.009685
  0.009049
  0.008412
  0.008412
  0.002683
  0.000137
 -0.000499
 -0.000499
 -0.000499
  0.009685
 -0.000499
 -0.001772
 -0.001136
 -0.000499
 -0.010683
  -0.01132
 -0.010047
 -0.010047
 -0.010683
  -0.01132
  -0.01132
  0.000774
 -0.010683
  -0.01132
 -0.010683
  -0.00941
 -0.010683
 -0.010683
 -0.008774
 -0.010683
  -0.01132
 -0.010683
  -0.00941
 -0.010047
  -0.01132
 -0.010683
 -0.010047
 -0.010047
  -0.01132
  -0.01132
 -0.008137
 -0.010047
 -0.010047
 -0.010683
 -0.010047
  -0.00941
 -0.010047
 -0.010683
 -0.010683
 -0.010047
 -0.010047
 -0.010683
 -0.010683
  -0.00941
  -0.00941
 -0.010683
 -0.010683
 -0.008774
 -0.010047
 -0.011956
 -0.010683
  -0.00941
  -0.00941
 -0.010047
  -0.01132
 -0.010047
  -0.00941
 -0.010047
 -0.011956
 -0.010047
  -0.01132
 -0.010047
  -0.00941
 -0.011956
 -0.010047
  -0.00941
 -0.010683
  -0.01132
 -0.010047
 -0.010047
  -0.00941
 -0.010683
 -0.011956
 -0.010683
  -0.00941
  -0.00941
  -0.00941
  -0.01132
 -0.010047
  -0.00941
 -0.010683
 -0.011956
  -0.00941
 -0.008774
 -0.010047
  -0.01132
  -0.00941
  -0.00941
 -0.010683
 -0.010683
 -0.010047
  -0.00941
 -0.010047
 -0.011956
 -0.011956
 -0.010683
  -0.01132
 -0.010683
 -0.010047
 -0.010047
  -0.01132
  -0.00941
  -0.00941
 -0.010683
  -0.01132
 -0.010683
  -0.00941
 -0.010683
 -0.010683
 -0.010047
 -0.010683
  -0.01132
 -0.010683
 -0.010047
 -0.010047
  -0.01132
  -0.01132
 -0.010683
  -0.00941
  -0.00941
 -0.010683
 -0.010047
 -0.010047
 -0.010683
 -0.012593
 -0.010047
 -0.010047
 -0.011956
 -0.010683
 -0.010683
 -0.010683
 -0.010683
 -0.010683
  -0.00941
 -0.010047
 -0.010683
 -0.010683
 -0.008774
 -0.010683
 -0.010683
 -0.010683
  -0.00941
 -0.010047
 -0.011956
 -0.010683
 -0.008774
  -0.00941
  -0.01132
 -0.010683
 -0.010683
 -0.010683
 -0.010683
  -0.01132
 -0.010683
 -0.008774
 -0.010683
 -0.010683
  -0.00941
  -0.00941
 -0.010683
  -0.01132
 -0.010047
 -0.010683
 -0.008774
 -0.010683
 -0.010683
 -0.010683
 -0.010047
 -0.010047
 -0.010047
  -0.01132
 -0.010683
 -0.010683
 -0.010683
 -0.010683
 -0.011956
  -0.01132
 -0.008774
 -0.010047
 -0.010683
 -0.010683
 -0.010683
  -0.00941
 -0.010683
 -0.010047
 -0.010047
  -0.00941
 -0.010047
 -0.010683
 -0.010047
 -0.008774
 -0.010683
 -0.010683
 -0.010683
 -0.008774
 -0.010047
  -0.01132
 -0.010683
 -0.010047
 -0.010683
 -0.010683
 -0.010683
 -0.010047
  -0.00941
 -0.010047
 -0.010683
 -0.010683
 -0.008774
 -0.010047
  -0.01132
 -0.010683
 -0.010683
 -0.010047
 -0.010683
 -0.010683
 -0.008774
 -0.010683
  -0.01132
 -0.010047
 -0.010047
  -0.01132
  -0.01132
 -0.010683
 -0.008774
 -0.010683
 -0.010683
 -0.010683
 -0.010683
  -0.00941
 -0.010683
  -0.01132
 -0.010683
 -0.010047
 -0.010683
 -0.011956
 -0.010047
 -0.010047
 -0.010683
  -0.01132
 -0.010683
 -0.010047
 -0.010683
 -0.010683
 -0.012593
 -0.010047
 -0.008774
 -0.010047
  -0.01132
 -0.010683
  -0.00941
 -0.010683
  -0.01132
 -0.010683
 -0.008774
 -0.010683
  -0.01132
 -0.010047
  -0.00941
 -0.010683
 -0.010683
 -0.010047
 -0.008774
 -0.010683
 -0.010683
 -0.010683
  -0.00941
 -0.010047
 -0.010683
 -0.010047
 -0.008774
 -0.010047
 -0.010683
 -0.010047
 -0.010047
 -0.010047
  -0.01132
 -0.010683
 -0.008774
 -0.010683
  -0.00941
  -0.01132
 -0.010683
 -0.010683
 -0.010047
  -0.01132
 -0.010683
 -0.010683
 -0.010683
  -0.01132
 -0.010047
 -0.010683
 -0.010047
  -0.00941
 -0.012593
 -0.010047
 -0.008137
 -0.008774
 -0.010047
  -0.01132
 -0.010683
 -0.010683
 -0.008774
 -0.010047
  -0.01132
 -0.010683
 -0.010683
 -0.010047
  -0.00941
 -0.010047
 -0.010047
 -0.020868
 -0.010683
 -0.020231
 -0.008774
 -0.010683
 -0.010683
 -0.020868
  -0.01132
 -0.010683
  0.000774
 -0.010683
  0.009049
  0.007139
  0.009049
  0.000137
  0.009049
  0.014141
  0.016687
  0.016687
  0.010322
  0.017323
   0.01796
  0.018596
  0.017323
  0.017323
  0.019233
  0.018596
  0.018596
   0.01796
   0.01796
  0.019233
  0.019233
  0.017323
  0.018596
  0.017323
  0.029417
  0.028781
  0.026871
  0.027508
  0.029417
  0.028781
  0.028781
  0.026871
  0.027508
  0.028144
  0.027508
  0.028144
  0.028144
  0.019233
  0.018596
   0.01796
  0.027508
  0.018596
  0.019233
  0.019233
  0.017323
  0.019869
  0.024325
  0.018596
  0.018596
  0.017323
  0.010958
  0.010322
  0.008412
  0.018596
  0.009685
  0.008412
  0.007776
  0.009049
  0.000774
 -0.000499
 -0.001136
  0.008412
 -0.000499
 -0.001136
  -0.01132
 -0.010683
 -0.010047
 -0.000499
 -0.011956
 -0.010683
  -0.00941
 -0.010047
 -0.010683
 -0.008137
 -0.008774
 -0.008774
 -0.011956
  -0.00941
 -0.010683
 -0.010047
 -0.011956
 -0.010047
 -0.008774
 -0.010683
  -0.01132
 -0.010683
 -0.010047
 -0.010047
 -0.010683
 -0.010047
  -0.00941
 -0.010683
 -0.010683
  -0.00941
  -0.00941
 -0.010047
  -0.01132
  -0.00941
 -0.010683
 -0.010683
  -0.01132
 -0.010047
 -0.010047
  -0.00941
 -0.010683
 -0.012593
 -0.010047
 -0.010683
 -0.010683
 -0.010047
  -0.00941
 -0.008774
 -0.011956
 -0.010683
 -0.008774
 -0.010047
  -0.01132
 -0.010047
  -0.00941
 -0.010683
 -0.011956
 -0.010683
  -0.00941
 -0.010047
 -0.010683
 -0.010683
 -0.008774
 -0.010047
  -0.01132
 -0.010047
 -0.010683
 -0.010683
 -0.010683
 -0.010683
 -0.010683
 -0.010683
 -0.008774
 -0.010683
  -0.01132
  -0.00941
 -0.008774
  0.007776
 -0.020868
 -0.001136
 -0.010683
 -0.003682
 -0.019595
 -0.000499
 -0.020868
 -0.041236
 -0.039963
 -0.069243
 -0.050147
 -0.076244
 -0.046965
 -0.146261
 -0.090248
 -0.290114
 -0.115708
  -0.20482
 -0.146898
 -0.232191
 -0.147534
 -0.223916
 -0.136713
 -0.202274
 -0.116981
 -0.204184
 -0.125893
 -0.181906
 -0.141169
 -0.179996
 -0.107434
 -0.086429
 -0.088975
 -0.066697
 -0.097249
 -0.064787
 -0.059695
 -0.048874
 -0.048238
 -0.031688
  -0.01132
  -0.00941
   0.04724
  0.026871
  0.036419
  0.028144
  0.096888
  0.048513
   0.08543
  0.047876
  0.135715
  0.076519
  0.143353
  0.078429
  0.163722
  0.086704
  0.218462
  0.094978
  0.212097
  0.114074
   0.20064
  0.105162
  0.191092
  0.113437
  0.212097
   0.11662
  0.191092
  0.094978
  0.221008
  0.122348
  0.179635
  0.058697
  0.047876
  0.014777
  0.020506
  -0.02596
 -0.000499
 -0.042509
  0.003957
 -0.055239
   0.00332
 -0.056512
  0.014141
  0.016687
  0.008412
  0.009685
  0.009049
  0.007776
  0.008412
  0.009685
  0.008412
  0.008412
  0.010322
  0.008412
  0.008412
  0.008412
  0.009049
  0.008412
  0.007139
  0.009685
  0.008412
  0.007776
  0.008412
  0.009049
  0.007139
  0.008412
  0.009049
  0.007776
  0.007776
  0.008412
  0.008412
  0.009049
  0.007139
  0.009049
  0.009049
  0.009049
  0.009049
  0.008412
  0.008412
  0.009049
  0.008412
  0.006503
  0.008412
  0.009049
  0.007139
  0.007776
  0.009049
  0.009049
  0.007139
  0.008412
  0.009685
  0.009049
  0.007139
  0.007776
  0.009049
  0.008412
  0.007776
  0.009049
  0.009049
  0.008412
  0.006503
  0.008412
  0.009049
  0.009049
  0.007139
  0.008412
  0.009049
  0.010322
  0.008412
  0.007776
  0.008412
  0.009049
  0.009049
  0.009049
  0.007776
  0.009049
  0.009049
  0.007139
  0.007776
  0.008412
  0.007139
  0.007139
  0.007139
  0.009049
  0.008412
  0.007139
  0.008412
  0.009685
  0.008412
  0.007776
  0.009049
  0.008412
  0.007776
  0.009685
  0.008412
  0.007139
  0.009049
 -0.000499
  0.007776
  0.007776
  0.009049
  0.007139
  0.008412
  0.009049
  0.008412
  0.007139
   0.01796
  0.009049
  0.008412
  0.008412
  0.009049
  0.009685
  0.007139
  0.007776
  0.019869
  0.009049
  0.009049
  0.014777
  0.014141
  0.007139
  0.009685
  0.009049
   0.00141
  0.007139
  0.007776
  0.008412
  0.007776
  0.017323
  0.009049
  0.009049
  0.007139
  0.018596
  0.008412
  0.009049
  0.009049
   0.01796
  0.017323
  0.019869
  0.007776
   0.01605
  0.016687
   0.01605
  0.008412
  0.007139
  0.006503
  0.017323
  0.019233
  0.016687
  0.008412
  0.017323
  0.019233
   0.01796
  0.017323
  0.019233
  0.009049
  0.019869
   0.01796
   0.01796
   0.01796
  0.019233
  0.019233
  0.016687
  0.026871
  0.019869
   0.01796
  0.017323
  0.017323
  0.019869
   0.01796
  0.017323
  0.018596
  0.018596
  0.017323
  0.017323
  0.017323
  0.018596
  0.016687
  0.018596
  0.018596
  0.037692
  0.026871
  0.027508
  0.029417
  0.027508
  0.026871
  0.027508
  0.028781
  0.027508
  0.027508
  0.038965
  0.028144
  0.027508
  0.029417
  0.028144
  0.027508
   0.05806
  0.037055
  0.035782
  0.037692
  0.038328
  0.041511
  0.039601
  0.038328
  0.037692
  0.044694
  0.039601
  0.046603
  0.038965
  0.037692
  0.039601
  0.046603
  0.037692
  0.047876
  0.038965
  0.037692
  0.037692
  0.038328
  0.027508
  0.037692
  0.026871
  0.028144
  0.028781
  0.038965
  0.026871
  0.028144
  0.027508
  0.028781
  0.018596
  0.020506
  0.019233
   0.01796
  0.019869
  0.027508
  0.016687
   0.01796
  0.019233
   0.01796
  0.018596
   0.01796
  0.008412
  0.007139
  0.009685
  0.008412
  0.014141
  0.011595
  0.009049
  0.009049
  0.008412
  0.009049
  0.009049
 -0.000499
 -0.000499
  0.000137
 -0.000499
 -0.000499
  0.009049
 -0.001136
 -0.001772
 -0.000499
 -0.001136
  -0.01132
  -0.01132
 -0.010683
  -0.01132
 -0.010683
 -0.008774
 -0.010683
 -0.001136
  -0.00941
 -0.010047
 -0.010047
 -0.010683
 -0.010683
 -0.010683
 -0.010683
 -0.008137
 -0.010047
 -0.010683
  -0.00941
  -0.00941
 -0.010683
 -0.010047
 -0.008774
 -0.010683
 -0.010683
 -0.010683
 -0.008774
  -0.00941
  -0.01132
 -0.010683
 -0.010047
 -0.010683
 -0.010683
  -0.00941
 -0.010683
 -0.011956
 -0.010683
 -0.010683
  -0.00941
 -0.011956
 -0.010047
 -0.010047
 -0.010683
 -0.010683
 -0.010683
 -0.010683
 -0.010683
  -0.01132
  -0.00941
  -0.00941
 -0.010683
 -0.010683
  -0.00941
 -0.010047
  -0.01132
 -0.010683
 -0.010047
 -0.011956
  -0.00941
  -0.00941
 -0.010047
 -0.010683
 -0.010683
 -0.010047
 -0.010047
 -0.010683
 -0.008774
 -0.010683
 -0.010683
 -0.010683
 -0.008774
 -0.010683
 -0.010683
 -0.010683
  -0.00941
 -0.010683
 -0.010683
 -0.010683
  -0.00941
 -0.010683
 -0.010683
  -0.00941
 -0.010683
 -0.010683
 -0.010047
 -0.010047
 -0.010047
  -0.01132
 -0.008774
 -0.010047
 -0.010683
  -0.01132
  -0.00941
 -0.010683
 -0.011956
 -0.010683
 -0.008774
 -0.010683
 -0.010683
  -0.00941
 -0.010683
  -0.01132
 -0.010683
  -0.00941
  -0.01132
 -0.010047
 -0.010047
 -0.008774
 -0.010683
 -0.010047
 -0.010683
  -0.01132
  -0.00941
  -0.00941
 -0.010047
  -0.01132
 -0.010683
  -0.00941
  -0.00941
  -0.00941
 -0.010047
 -0.010683
 -0.010683
 -0.010047
 -0.010047
 -0.008774
 -0.010683
  -0.00941
 -0.010047
 -0.010683
  -0.01132
 -0.011956
 -0.010683
  -0.00941
 -0.010683
  -0.01132
  -0.00941
 -0.010683
 -0.010047
 -0.010683
 -0.010683
 -0.010683
 -0.010047
 -0.010683
 -0.010683
  -0.01132
  -0.00941
 -0.008774
 -0.010683
 -0.010683
 -0.010047
  -0.00941
 -0.010683
 -0.012593
 -0.010683
 -0.008774
 -0.010683
 -0.010683
  -0.01132
 -0.010683
 -0.010047
 -0.010047
  -0.01132
 -0.010683
 -0.008774
 -0.010683
 -0.010683
 -0.010683
 -0.010047
  -0.01132
 -0.010683
 -0.010683
 -0.008774
 -0.010683
  -0.00941
  -0.01132
 -0.010047
 -0.010047
  -0.00941
  -0.01132
 -0.010047
 -0.010047
 -0.010683
 -0.010683
 -0.010047
 -0.008774
 -0.010683
  -0.01132
 -0.008774
 -0.008774
 -0.010047
  -0.01132
 -0.010047
  -0.00941
 -0.010047
  -0.01132
 -0.010683
 -0.010047
 -0.010047
  -0.01132
 -0.010683
 -0.010047
 -0.010047
  -0.01132
 -0.010047
 -0.010047
 -0.010683
 -0.010683
  -0.01132
  -0.00941
  -0.00941
  -0.01132
 -0.010683
 -0.010047
 -0.010683
  -0.01132
 -0.010683
  -0.00941
 -0.010047
 -0.010683
 -0.010047
 -0.010683
 -0.010047
  -0.00941
 -0.008774
  -0.00941
 -0.010683
 -0.008137
 -0.010683
  -0.01132
 -0.010683
 -0.010047
 -0.010683
 -0.010047
 -0.010047
 -0.010047
 -0.010683
 -0.010683
 -0.008774
  -0.00941
 -0.010683
 -0.008774
 -0.008774
 -0.010047
 -0.010047
 -0.010047
 -0.010683
  -0.01132
  -0.00941
 -0.010047
 -0.010047
 -0.011956
 -0.010047
 -0.010047
 -0.011956
  -0.01132
 -0.010047
 -0.010047
  -0.01132
 -0.010683
 -0.010047
 -0.008774
  -0.01132
 -0.010047
  -0.00941
 -0.010683
 -0.010683
 -0.010047
 -0.010047
  -0.01132
 -0.010047
 -0.010047
 -0.010683
  -0.01132
  -0.00941
 -0.010047
 -0.010683
  -0.01132
 -0.010047
  -0.00941
 -0.010047
 -0.011956
 -0.010047
 -0.008774
 -0.010683
  -0.01132
 -0.010683
 -0.010683
 -0.010047
  -0.01132
 -0.010683
 -0.010683
 -0.011956
  -0.01132
  -0.00941
 -0.010683
  -0.01132
 -0.010047
 -0.010047
 -0.010683
  -0.01132
 -0.010683
 -0.010047
 -0.010047
  -0.01132
 -0.010047
  -0.00941
  -0.00941
 -0.021504
 -0.010683
 -0.019595
 -0.010683
  -0.01132
 -0.010683
 -0.018958
  -0.01132
 -0.008137
 -0.006228
  0.003957
  0.009685
  0.009049
   0.00141
  0.007139
  0.007776
  0.017323
  0.018596
   0.01796
  0.009049
  0.019233
  0.019869
  0.016687
  0.017323
  0.018596
  0.019233
  0.017323
  0.018596
  0.019233
  0.018596
  0.017323
  0.018596
  0.018596
   0.01796
  0.018596
  0.027508
  0.027508
  0.026871
  0.029417
  0.027508
  0.027508
  0.027508
  0.027508
  0.026871
  0.028144
  0.028144
  0.026871
  0.026871
   0.01796
  0.018596
  0.023689
  0.021779
  0.019233
  0.018596
  0.018596
  0.018596
  0.028144
  0.018596
   0.01796
  0.018596
   0.01796
  0.008412
  0.009049
  0.008412
   0.01796
  0.008412
  0.009049
  0.009685
  0.009049
 -0.000499
 -0.000499
 -0.000499
  0.009049
 -0.000499
 -0.000499
  -0.00941
 -0.010683
 -0.010683
  0.000137
 -0.010683
  -0.01132
 -0.010683
  -0.00941
 -0.010683
 -0.010683
 -0.010683
  -0.00941
 -0.010683
  -0.01132
 -0.010683
  -0.00941
 -0.010683
 -0.010683
  -0.00941
 -0.010047
 -0.010683
  -0.01132
  -0.00941
 -0.008774
 -0.010047
  -0.01132
  -0.00941
 -0.010047
  -0.01132
 -0.008774
  -0.00941
 -0.010047
  -0.01132
 -0.010683
 -0.008774
 -0.010047
 -0.010683
 -0.010683
 -0.010047
 -0.010047
  -0.01132
 -0.010683
  -0.00941
 -0.010047
 -0.010683
 -0.008774
 -0.010047
  -0.01132
 -0.010047
 -0.010047
 -0.010683
  -0.01132
  -0.00941
 -0.010047
 -0.010683
 -0.010047
 -0.008137
 -0.010683
 -0.010047
  -0.01132
 -0.010047
 -0.010047
 -0.011956
 -0.010683
  -0.00941
 -0.010683
 -0.010683
 -0.010683
 -0.010683
 -0.010047
 -0.010047
 -0.010683
 -0.010683
  -0.00941
 -0.010047
 -0.010683
 -0.010683
  0.007776
 -0.020231
 -0.001772
 -0.010683
 -0.001136
 -0.020231
 -0.000499
 -0.022141
 -0.041236
 -0.039963
 -0.069243
 -0.049511
 -0.077517
 -0.047601
 -0.145625
 -0.088975
 -0.291387
 -0.115072
 -0.202274
 -0.146261
 -0.232827
 -0.158355
 -0.193363
 -0.171085
 -0.148807
 -0.176177
 -0.143715
 -0.174268
 -0.133531
 -0.213095
 -0.107434
 -0.115708
 -0.069243
 -0.095976
 -0.060968
 -0.104888
 -0.059695
 -0.059058
 -0.049511
 -0.046965
 -0.029142
 -0.010683
 -0.008774
   0.04724
  0.026871
  0.037692
  0.028144
  0.094978
   0.04724
  0.087977
  0.049149
  0.135715
  0.076519
  0.145263
  0.077156
  0.163085
  0.086704
  0.220372
  0.094978
  0.210824
  0.115983
  0.201276
  0.105162
  0.175816
  0.154174
  0.159903
  0.164358
  0.122985
  0.193002
  0.139534
  0.201913
  0.080975
  0.047876
   0.04724
  0.002047
  0.026871
 -0.039327
  0.007776
 -0.048874
  0.007139
 -0.059058
  0.008412
 -0.060968
  0.016687
  0.017323
  0.009685
  0.008412
  0.007139
  0.008412
  0.009049
  0.007776
  0.007139
  0.008412
  0.007139
  0.007776
  0.008412
  0.009049
  0.008412
  0.007139
  0.008412
  0.009685
  0.009049
  0.006503
  0.009049
  0.009049
  0.007776
  0.007139
  0.007776
  0.009049
  0.007776
  0.007776
  0.009049
  0.009685
  0.007139
  0.008412
  0.007139
  0.009049
  0.009049
  0.008412
  0.008412
  0.009049
  0.008412
  0.007139
  0.007776
  0.009049
  0.007776
  0.007776
  0.008412
  0.009685
  0.009049
  0.007776
  0.008412
  0.010322
  0.009049
  0.007139
  0.008412
  0.009685
  0.009049
  0.007776
  0.008412
  0.010322
  0.009049
  0.006503
  0.009049
  0.009049
  0.008412
  0.006503
  0.009049
  0.009049
  0.009049
  0.009049
  0.009685
  0.008412
  0.008412
  0.007139
  0.009049
  0.008412
  0.009049
  0.007776
  0.009685
  0.008412
  0.007776
  0.008412
  0.009049
  0.007139
  0.007776
  0.008412
  0.008412
  0.007139
  0.008412
  0.008412
  0.008412
  0.009049
  0.007139
  0.008412
  0.009049
  0.007776
  0.007776
 -0.000499
  0.009685
  0.006503
  0.008412
  0.009049
  0.009049
  0.007139
  0.009049
  0.009049
  0.019233
  0.007139
  0.008412
  0.009049
  0.007776
  0.009049
  0.009685
  0.016687
  0.009049
  0.009685
  0.010322
  0.017323
  0.007139
  0.007139
  0.010322
  0.009685
 -0.001772
  0.007139
  0.008412
  0.007776
  0.007139
  0.016687
  0.008412
  0.009685
  0.009049
  0.017323
  0.009049
  0.008412
  0.007139
   0.01796
  0.019233
  0.019233
  0.007139
  0.017323
  0.018596
  0.017323
  0.007776
  0.008412
  0.007139
   0.01605
   0.01796
  0.018596
  0.009049
  0.019233
  0.017323
  0.018596
  0.019233
  0.010322
   0.01796
  0.020506
  0.019233
   0.01796
  0.019233
  0.019869
  0.019233
  0.018596
  0.028781
  0.019233
   0.01796
  0.017323
  0.018596
   0.01796
  0.017323
  0.018596
  0.018596
  0.018596
  0.016687
  0.017323
   0.01796
  0.017323
  0.017323
  0.018596
  0.017323
  0.035782
  0.028781
  0.027508
  0.026871
  0.028781
  0.029417
  0.027508
  0.026871
  0.028144
  0.028781
  0.037692
  0.026871
  0.027508
  0.028781
  0.027508
  0.046603
  0.041511
  0.035782
  0.037055
  0.036419
  0.037055
  0.045967
  0.037055
  0.037055
  0.037692
   0.04533
  0.037692
  0.049786
  0.038328
  0.038328
  0.037692
  0.049786
  0.037055
  0.046603
  0.037692
  0.038965
  0.038965
  0.037055
  0.028144
  0.037055
  0.027508
  0.028144
  0.028144
  0.038965
  0.028781
  0.026871
  0.028144
  0.027508
  0.018596
   0.01796
  0.018596
  0.019233
  0.019233
  0.026871
   0.01796
  0.019233
  0.018596
  0.017323
   0.01796
  0.010322
  0.009049
  0.009049
  0.006503
  0.009049
  0.019233
  0.008412
  0.007776
  0.008412
  0.009049
  0.008412
  0.007776
 -0.000499
 -0.000499
 -0.000499
 -0.001136
 -0.000499
  0.010322
 -0.001136
 -0.001772
 -0.000499
 -0.000499
 -0.010683
  -0.01132
  -0.00941
  -0.00941
 -0.010683
  -0.01132
 -0.010683
  0.000137
 -0.010047
  -0.01132
 -0.010047
 -0.010047
 -0.010047
 -0.010683
  -0.01132
  -0.01132
 -0.008774
 -0.010683
 -0.011956
 -0.010683
  -0.00941
  -0.00941
  -0.01132
 -0.010683
 -0.010047
  -0.00941
 -0.010047
  -0.01132
 -0.010683
 -0.010047
 -0.010683
 -0.010683
 -0.010047
  -0.00941
 -0.010047
  -0.01132
 -0.010047
 -0.010683
 -0.010047
 -0.008774
  -0.01132
 -0.010683
 -0.010683
 -0.010683
  -0.01132
  -0.01132
 -0.010683
 -0.010047
 -0.010683
 -0.011956
 -0.010047
 -0.010047
 -0.010047
  -0.01132
  -0.00941
 -0.008774
  -0.00941
  -0.01132
 -0.010683
 -0.010047
  -0.00941
  -0.01132
 -0.010683
 -0.008774
 -0.010683
  -0.01132
  -0.01132
 -0.008774
  -0.01132
  -0.01132
 -0.010683
  -0.00941
 -0.010047
 -0.011956
 -0.010683
 -0.010047
 -0.010047
 -0.010047
 -0.010047
  -0.00941
  -0.00941
 -0.010683
 -0.010683
 -0.008774
  -0.01132
 -0.011956
 -0.010683
  -0.00941
 -0.010683
 -0.010683
  -0.01132
  -0.00941
 -0.010683
 -0.010047
 -0.010683
  -0.01132
  -0.00941
 -0.010047
  -0.01132
 -0.010047
  -0.00941
 -0.010047
  -0.01132
 -0.010047
 -0.010683
  -0.00941
  -0.01132
 -0.010683
 -0.008774
  -0.00941
 -0.010683
 -0.008774
 -0.008774
 -0.010683
 -0.010047
  -0.01132
 -0.010047
 -0.008774
 -0.010683
  -0.01132
 -0.010047
 -0.010047
 -0.010683
 -0.010683
 -0.010047
  -0.00941
 -0.010683
 -0.011956
 -0.010047
 -0.010047
  -0.00941
  -0.01132
 -0.010683
 -0.010047
 -0.010683
 -0.010683
 -0.010047
 -0.010047
 -0.010047
  -0.01132
 -0.010047
  -0.00941
 -0.010047
 -0.010683
 -0.010047
 -0.010047
  -0.01132
 -0.010683
  -0.00941
 -0.010683
 -0.010683
 -0.010683
 -0.008774
 -0.010683
 -0.011956
 -0.010047
 -0.008774
 -0.010047
 -0.010047
  -0.00941
 -0.010047
  -0.01132
 -0.010683
 -0.008137
 -0.010683
  -0.01132
 -0.010047
 -0.008774
 -0.010047
 -0.010683
  -0.01132
 -0.010047
 -0.008774
  -0.01132
 -0.010683
  -0.00941
  -0.00941
  -0.01132
 -0.010683
 -0.010047
 -0.010047
 -0.010683
  -0.00941
  -0.01132
 -0.010683
  -0.00941
 -0.010047
 -0.010683
  -0.01132
 -0.010047
  -0.00941
  -0.01132
  -0.01132
  -0.00941
 -0.010047
 -0.010047
  -0.01132
 -0.010047
 -0.010683
 -0.010047
 -0.010683
  -0.01132
 -0.010047
 -0.008774
 -0.010047
 -0.010683
 -0.010047
 -0.010047
 -0.010683
 -0.010683
 -0.010683
 -0.007501
  -0.01132
 -0.010683
 -0.010047
 -0.010683
 -0.010683
 -0.010683
  -0.00941
 -0.010683
  -0.01132
  -0.01132
 -0.010047
 -0.010047
 -0.010683
 -0.010047
 -0.010683
 -0.010047
 -0.008774
 -0.011956
 -0.010683
 -0.008774
 -0.010683
 -0.010683
  -0.01132
  -0.01132
 -0.010683
 -0.010683
 -0.010683
 -0.010047
 -0.010683
 -0.011956
 -0.010683
 -0.008774
 -0.010683
  -0.01132
  -0.00941
 -0.010683
  -0.01132
  -0.01132
  -0.00941
  -0.01132
  -0.01132
 -0.010683
 -0.010047
 -0.010047
  -0.01132
  -0.00941
 -0.010683
 -0.010683
  -0.01132
 -0.010047
 -0.010047
 -0.010683
 -0.010683
  -0.00941
  -0.00941
 -0.010683
 -0.010683
 -0.008774
  -0.00941
 -0.011956
 -0.010047
 -0.010047
  -0.00941
  -0.01132
 -0.010047
 -0.008774
 -0.010047
  -0.01132
 -0.010683
 -0.008774
 -0.010047
 -0.010683
 -0.010047
  -0.00941
 -0.010683
 -0.010683
 -0.008774
  -0.00941
  -0.01132
 -0.010683
 -0.008774
 -0.008774
 -0.010683
 -0.010683
 -0.010683
 -0.010683
 -0.010683
 -0.010683
 -0.010047
 -0.010047
 -0.010683
 -0.010683
  -0.00941
 -0.010047
 -0.019595
 -0.013229
 -0.014502
 -0.011956
 -0.011956
 -0.017048
  -0.01132
 -0.010047
 -0.003045
 -0.008774
  0.007139
  0.009049
  0.009049
  0.000774
  0.007776
  0.007776
  0.017323
   0.01796
  0.016687
  0.007139
  0.019233
   0.01796
   0.01796
  0.018596
  0.019233
  0.016687
  0.018596
  0.018596
  0.019233
  0.017323
   0.01796
  0.019233
   0.01796
  0.016687
  0.019233
  0.028144
  0.026871
  0.028144
  0.028781
  0.027508
  0.025598
  0.028781
  0.028781
  0.028144
  0.027508
  0.027508
  0.029417
  0.019869
   0.01605
  0.018596
  0.025598
  0.019233
   0.01796
  0.019233
  0.019233
  0.017323
  0.027508
  0.018596
  0.019233
  0.017323
  0.019233
  0.009685
  0.009049
  0.007139
  0.018596
  0.009685
  0.009049
  0.008412
  0.009049
 -0.000499
 -0.000499
 -0.003045
  0.009049
  0.000137
 -0.000499
  -0.01132
 -0.010047
  -0.00941
  0.000137
  -0.01132
 -0.008774
 -0.010047
 -0.010683
 -0.008774
  -0.00941
 -0.010047
 -0.010683
  -0.01132
 -0.010683
 -0.010047
  -0.01132
 -0.010047
 -0.010047
  -0.01132
 -0.010683
 -0.010047
  -0.01132
  -0.01132
 -0.010683
  -0.00941
 -0.010683
  -0.01132
  -0.01132
 -0.010047
 -0.010683
 -0.010683
 -0.010047
 -0.010047
 -0.011956
 -0.010683
 -0.010047
 -0.010683
 -0.010683
 -0.010047
 -0.010047
 -0.010683
 -0.010683
 -0.008774
 -0.010047
 -0.010047
 -0.010683
 -0.010047
  -0.00941
 -0.010683
 -0.010683
  -0.00941
 -0.010047
 -0.010683
  -0.00941
  -0.00941
 -0.011956
  -0.01132
  -0.01132
 -0.010683
  -0.01132
  -0.01132
 -0.010047
 -0.010683
  -0.01132
 -0.010683
 -0.008774
 -0.010683
  -0.01132
 -0.010683
 -0.008774
 -0.010683
 -0.010683
 -0.010683
  -0.00941
 -0.010047
 -0.010683
 -0.010683
  0.009049
 -0.020231
 -0.000499
 -0.010683
 -0.000499
 -0.020231
 -0.001772
 -0.020868
 -0.039327
 -0.039327
 -0.069243
 -0.050147
 -0.076881
 -0.049511
 -0.145625
 -0.118891
 -0.230281
 -0.160264
  -0.16663
  -0.20673
 -0.167266
 -0.209913
 -0.146898
 -0.197182
  -0.12271
 -0.197182
 -0.129712
 -0.181906
 -0.127802
 -0.222006
 -0.101068
 -0.116345
 -0.066697
 -0.096613
 -0.060332
 -0.104888
 -0.058422
 -0.059058
 -0.048874
 -0.048874
 -0.029779
 -0.010683
 -0.008774
  0.048513
  0.026871
  0.037692
  0.030054
  0.095615
  0.048513
  0.087977
  0.049786
  0.133806
  0.076519
  0.146536
  0.077792
  0.163085
   0.08543
  0.194911
  0.138898
  0.159903
  0.170724
   0.13126
  0.172633
  0.128714
  0.200003
  0.123621
  0.185363
  0.101343
   0.21528
  0.128714
  0.210187
  0.070154
   0.04533
   0.04724
 -0.000499
  0.026871
   -0.0406
  0.008412
 -0.049511
  0.006503
 -0.059058
  0.009685
 -0.059695
   0.01605
  0.017323
  0.009049
  0.009049
  0.007139
  0.008412
  0.008412
  0.007139
  0.008412
  0.010322
  0.007776
  0.007776
  0.009049
  0.009049
  0.008412
  0.007776
  0.009685
  0.008412
  0.007139
  0.007776
  0.009685
  0.010322
  0.006503
  0.008412
  0.009049
  0.007776
  0.008412
  0.007139
  0.008412
  0.007139
  0.008412
  0.009049
  0.007776
  0.008412
  0.007776
  0.009049
  0.007139
  0.009049
  0.009049
  0.008412
  0.008412
  0.009049
  0.009049
  0.009049
  0.007776
  0.007776
  0.009049
  0.007776
  0.009049
  0.008412
  0.009049
  0.009049
  0.006503
  0.008412
  0.008412
  0.007139
  0.007139
  0.009049
  0.009049
  0.007776
  0.009049
  0.009049
  0.007139
  0.007776
  0.009049
  0.009685
  0.007139
  0.008412
  0.008412
  0.007139
  0.009049
  0.008412
  0.009049
  0.008412
  0.007776
  0.009049
  0.007776
  0.007139
  0.007139
  0.009049
  0.008412
  0.007776
  0.009685
  0.009049
  0.009049
  0.007139
  0.009049
  0.010322
  0.009049
  0.007776
  0.008412
  0.008412
  0.008412
  0.007776
  0.009685
 -0.001136
  0.007139
  0.007776
  0.008412
  0.007776
  0.007139
  0.008412
  0.008412
  0.014777
  0.011595
  0.009049
  0.007139
  0.007139
  0.009049
  0.009049
  0.009049
  0.019233
  0.008412
  0.007776
  0.010958
  0.019233
  0.006503
  0.007776
  0.009685
  0.009049
 -0.001136
  0.009049
  0.009049
  0.007776
  0.007139
  0.019869
  0.008412
  0.007776
  0.008412
  0.017323
  0.009049
  0.007139
  0.008412
  0.018596
  0.018596
  0.016687
  0.008412
   0.01796
   0.01796
   0.01605
  0.009049
  0.009049
  0.012868
   0.01796
  0.018596
  0.012868
  0.016687
  0.017323
  0.019233
  0.018596
   0.01796
  0.009685
   0.01796
  0.018596
  0.019233
  0.018596
  0.018596
  0.018596
  0.021142
  0.019869
  0.030054
  0.017323
  0.017323
   0.01796
   0.01796
  0.018596
  0.017323
  0.019233
  0.018596
   0.01796
  0.017323
  0.018596
  0.019233
  0.019233
  0.016687
  0.018596
  0.019233
  0.037055
  0.026871
  0.028781
  0.028781
  0.028781
  0.029417
  0.028144
  0.027508
  0.026871
  0.036419
   0.03069
  0.026235
  0.027508
  0.030054
  0.027508
  0.054241
  0.037692
  0.038965
  0.036419
  0.037055
  0.037692
   0.04724
  0.037692
  0.037692
  0.037692
  0.046603
  0.035782
   0.04724
  0.038965
  0.037692
  0.037055
   0.04724
  0.037692
  0.046603
  0.038965
  0.039601
  0.038328
  0.035782
  0.027508
  0.037692
  0.027508
  0.026871
  0.027508
  0.038328
  0.027508
  0.027508
  0.028781
  0.024962
  0.018596
  0.019233
  0.018596
   0.01796
  0.024325
  0.020506
  0.017323
  0.018596
   0.01796
   0.01796
  0.019233
  0.009049
  0.007776
  0.009049
  0.009049
  0.009049
   0.01796
  0.009049
  0.009685
  0.008412
  0.007776
  0.008412
  0.009049
 -0.000499
 -0.001772
 -0.001136
  0.000774
 -0.000499
  0.009049
 -0.001772
 -0.000499
 -0.000499
 -0.000499
 -0.010047
  -0.01132
 -0.010683
 -0.010683
  -0.00941
 -0.010683
  -0.01132
 -0.000499
 -0.010047
 -0.010047
 -0.010047
  -0.01132
 -0.011956
 -0.010683
  -0.00941
 -0.010683
  -0.01132
 -0.010047
 -0.010047
 -0.010047
  -0.01132
 -0.010683
 -0.008774
 -0.008774
 -0.010683
 -0.010683
 -0.010683
  -0.00941
  -0.01132
  -0.01132
  -0.01132
 -0.010047
  -0.01132
 -0.010683
 -0.011956
 -0.010683
 -0.010047
 -0.010683
  -0.00941
 -0.010683
 -0.010047
  -0.00941
 -0.010683
 -0.010047
  -0.01132
 -0.010683
  -0.00941
 -0.010683
 -0.010047
 -0.011956
 -0.010683
 -0.010683
  -0.00941
 -0.010683
 -0.011956
 -0.010683
  -0.00941
 -0.010047
 -0.010047
  -0.01132
 -0.010683
  -0.00941
 -0.008137
  -0.00941
 -0.010683
 -0.010047
  -0.00941
 -0.008774
  -0.00941
  -0.01132
 -0.010683
 -0.010047
 -0.010683
 -0.010683
 -0.011956
 -0.010047
 -0.008774
  -0.00941
 -0.010683
  -0.01132
 -0.010047
 -0.010047
 -0.010047
 -0.010683
  -0.01132
 -0.010047
  -0.00941
 -0.010047
 -0.010683
 -0.010683
 -0.010047
 -0.010047
  -0.01132
  -0.00941
 -0.010683
 -0.010683
 -0.010047
  -0.00941
 -0.010047
 -0.011956
  -0.01132
 -0.008774
 -0.008774
 -0.010683
 -0.010683
 -0.010047
 -0.010683
 -0.010683
 -0.008774
 -0.010047
  -0.01132
 -0.010047
 -0.010047
 -0.010047
  -0.01132
 -0.010047
  -0.00941
  -0.01132
 -0.010047
 -0.010047
 -0.008774
 -0.010047
  -0.01132
 -0.010047
 -0.008774
 -0.010047
 -0.011956
 -0.010047
 -0.010047
 -0.010683
  -0.01132
 -0.010683
 -0.008774
 -0.010047
  -0.01132
 -0.010047
  -0.00941
 -0.010047
  -0.01132
 -0.010047
 -0.010047
 -0.010047
  -0.01132
 -0.010683
 -0.008774
 -0.011956
 -0.010047
 -0.010683
  -0.00941
 -0.010683
 -0.012593
  -0.01132
 -0.008774
 -0.010047
 -0.010047
  -0.01132
 -0.010047
  -0.00941
 -0.010047
 -0.010683
  -0.00941
 -0.010047
 -0.011956
 -0.010683
  -0.00941
 -0.010047
 -0.010047
 -0.010683
  -0.00941
 -0.010047
 -0.011956
 -0.010047
 -0.008774
 -0.010047
 -0.011956
 -0.010683
 -0.008774
 -0.010683
 -0.010683
 -0.008774
 -0.010047
  -0.01132
 -0.010683
 -0.008774
 -0.010047
 -0.010683
  -0.01132
 -0.010683
  -0.00941
 -0.010683
  -0.01132
 -0.008774
 -0.010683
 -0.010683
 -0.010683
 -0.008774
 -0.010047
 -0.010047
 -0.008774
 -0.010047
  -0.01132
 -0.010047
 -0.008774
  -0.00941
 -0.012593
 -0.010047
  -0.00941
 -0.010047
  -0.01132
 -0.010683
 -0.010047
 -0.010683
  -0.01132
  -0.01132
 -0.008774
 -0.010683
  -0.01132
 -0.010683
  -0.00941
  -0.00941
  -0.01132
 -0.010683
  -0.00941
 -0.010683
  -0.01132
 -0.010683
 -0.008774
 -0.010047
 -0.010683
 -0.011956
 -0.010683
 -0.010047
 -0.010047
  -0.01132
 -0.010683
  -0.00941
  -0.00941
  -0.01132
 -0.010683
 -0.010047
 -0.010683
 -0.010683
 -0.010683
 -0.010683
 -0.010683
 -0.010683
  -0.01132
 -0.010683
 -0.010683
 -0.010683
 -0.008774
  -0.01132
 -0.010683
 -0.010683
 -0.010047
 -0.010047
  -0.01132
 -0.010683
  -0.00941
 -0.010683
  -0.01132
  -0.01132
  -0.00941
 -0.010047
 -0.010683
 -0.010683
  -0.00941
  -0.00941
  -0.01132
 -0.010683
 -0.010047
 -0.010047
 -0.010683
 -0.010683
 -0.010047
 -0.010683
 -0.010683
 -0.010047
 -0.010047
 -0.010683
 -0.011956
 -0.010683
  -0.00941
 -0.010047
  -0.01132
  -0.00941
  -0.00941
 -0.010047
  -0.01132
 -0.010683
 -0.010047
 -0.010683
 -0.010683
 -0.010047
 -0.008774
 -0.010683
 -0.010047
 -0.008774
 -0.010047
 -0.010683
 -0.010683
 -0.010047
 -0.008774
  -0.00941
  -0.01132
  -0.01132
 -0.010683
 -0.018322
  -0.01132
 -0.020231
  -0.01132
  -0.00941
 -0.010683
 -0.020868
  -0.01132
 -0.010683
 -0.001772
  -0.01132
  0.009049
  0.010322
  0.009049
 -0.001136
  0.008412
  0.007776
   0.01796
  0.016687
   0.01796
  0.008412
  0.019233
  0.017323
  0.018596
  0.019233
  0.016687
   0.01796
  0.019233
  0.018596
  0.017323
  0.019233
  0.019233
  0.018596
  0.017323
   0.01796
  0.020506
  0.027508
  0.028144
  0.026871
  0.027508
  0.028781
  0.027508
  0.026871
  0.026235
  0.027508
  0.028781
  0.027508
  0.028781
  0.016687
  0.017323
  0.017323
  0.029417
  0.018596
  0.018596
  0.017323
  0.019233
  0.019869
  0.028144
  0.016687
   0.01796
  0.018596
  0.017323
  0.007139
  0.006503
  0.008412
  0.018596
  0.009049
  0.008412
  0.008412
  0.009049
 -0.000499
 -0.000499
 -0.000499
  0.009685
 -0.000499
 -0.000499
  -0.01132
 -0.010683
 -0.005591
 -0.006228
 -0.011956
 -0.010683
 -0.010047
 -0.010683
 -0.010683
 -0.010683
 -0.010047
  -0.00941
 -0.010683
  -0.01132
 -0.010047
 -0.010047
 -0.010047
 -0.010683
 -0.008774
 -0.008774
 -0.010683
  -0.01132
 -0.010683
 -0.008774
 -0.010047
 -0.010683
  -0.00941
  -0.00941
  -0.00941
 -0.010683
 -0.010047
  -0.00941
 -0.010047
 -0.010683
  -0.01132
  -0.01132
  -0.00941
 -0.011956
 -0.010047
  -0.00941
 -0.010047
 -0.010683
 -0.010683
 -0.010683
  -0.00941
 -0.010047
 -0.010683
 -0.010047
 -0.008774
 -0.010047
 -0.010683
 -0.010047
 -0.010683
 -0.010683
 -0.010683
  -0.00941
 -0.010047
 -0.010683
 -0.008774
 -0.010683
 -0.010683
  -0.01132
 -0.010683
 -0.010683
  -0.01132
 -0.010683
 -0.010683
 -0.008774
 -0.010683
 -0.010683
 -0.010683
 -0.010683
 -0.010047
 -0.010047
 -0.011956
  -0.00941
 -0.010047
  0.009049
 -0.020868
 -0.000499
  -0.01132
 -0.001136
 -0.019595
 -0.000499
 -0.025323
 -0.041236
 -0.053966
 -0.056512
  -0.06797
 -0.056512
 -0.129075
 -0.095976
 -0.268472
 -0.131621
 -0.198455
 -0.148807
 -0.230281
  -0.15008
 -0.220733
  -0.13735
 -0.201638
 -0.117618
 -0.203547
 -0.127166
 -0.182542
 -0.126529
 -0.223916
 -0.097886
 -0.115072
 -0.067333
 -0.097886
 -0.058422
 -0.106797
 -0.057785
 -0.057785
 -0.049511
 -0.048238
 -0.029142
 -0.011956
 -0.010047
  0.048513
  0.026871
  0.036419
  0.029417
  0.096251
   0.04724
  0.079702
  0.082248
  0.103889
  0.119166
  0.097524
  0.145263
  0.098797
  0.201913
  0.108982
  0.201913
  0.121075
  0.198094
  0.108982
  0.188546
  0.115347
  0.210824
  0.117256
  0.190456
  0.093069
  0.219735
  0.126804
  0.210187
  0.066972
  0.045967
  0.047876
 -0.000499
  0.025598
 -0.039963
  0.008412
 -0.049511
  0.007139
 -0.059058
  0.007776
 -0.060332
  0.016687
  0.017323
  0.009049
  0.008412
  0.006503
  0.008412
  0.010322
  0.007776
  0.007139
  0.007139
  0.009685
  0.009049
  0.007139
  0.008412
  0.009049
  0.007776
  0.007776
  0.008412
  0.008412
  0.008412
  0.007776
  0.009049
  0.008412
  0.007139
  0.009049
  0.009685
  0.008412
  0.007776
  0.009049
  0.009049
  0.007776
  0.009049
  0.009049
  0.008412
  0.007139
  0.008412
  0.009049
  0.008412
  0.008412
  0.008412
  0.009049
  0.007139
  0.008412
  0.009049
  0.008412
  0.007139
  0.007776
  0.009049
  0.007776
  0.009049
  0.009049
  0.009049
  0.007139
  0.008412
  0.009685
  0.009049
  0.007139
  0.008412
  0.009685
  0.009049
  0.007776
  0.007139
  0.009049
  0.009049
  0.007139
  0.008412
  0.009049
  0.008412
  0.008412
  0.009049
  0.008412
  0.007139
  0.008412
  0.009049
  0.008412
  0.007139
  0.008412
  0.009685
  0.009049
  0.006503
  0.009049
  0.008412
  0.008412
  0.007139
  0.007776
  0.009685
  0.007776
  0.007139
  0.009049
  0.008412
  0.008412
  0.007139
  0.009049
  0.009049
   0.00141
  0.005866
  0.009049
  0.009049
  0.007139
  0.007776
  0.009049
  0.007776
  0.007139
  0.018596
  0.009049
  0.008412
  0.007776
  0.007776
  0.009049
  0.007139
  0.009049
  0.018596
  0.009685
  0.008412
  0.008412
  0.019233
  0.009049
  0.006503
  0.008412
  0.007139
 -0.001136
  0.007776
  0.007139
  0.008412
  0.009049
   0.01796
  0.007139
  0.009049
  0.007776
  0.018596
  0.008412
  0.009685
  0.009685
  0.019233
  0.018596
  0.012868
  0.014777
  0.018596
  0.016687
  0.008412
  0.008412
  0.009049
  0.017323
  0.018596
   0.01605
  0.008412
  0.019233
  0.018596
  0.017323
  0.019233
  0.018596
  0.009049
  0.018596
  0.019233
  0.019233
  0.019233
  0.019233
  0.018596
  0.019869
  0.019869
  0.028781
  0.016687
   0.01796
  0.018596
   0.01796
  0.017323
  0.018596
  0.018596
  0.018596
  0.018596
  0.017323
  0.019233
  0.018596
   0.01796
  0.016687
   0.01796
  0.028144
    0.0326
  0.026871
  0.027508
  0.029417
  0.029417
  0.028781
  0.028144
  0.027508
  0.027508
  0.037692
  0.029417
  0.027508
  0.026235
  0.026871
  0.028144
  0.057424
  0.037055
  0.035782
  0.035146
  0.036419
  0.037692
  0.045967
  0.037692
  0.037055
  0.037692
  0.048513
  0.036419
   0.04724
  0.039601
  0.037692
  0.038965
  0.047876
  0.035146
  0.047876
  0.038965
  0.037692
  0.038328
  0.037055
  0.028781
  0.037692
  0.028144
  0.028144
  0.031963
  0.030054
  0.029417
  0.026871
  0.026235
  0.019233
  0.019233
  0.018596
  0.018596
  0.018596
  0.028144
   0.01796
  0.017323
   0.01796
  0.018596
  0.018596
   0.01796
  0.008412
  0.009049
  0.008412
  0.009049
  0.007139
   0.01796
  0.009049
  0.009049
  0.008412
  0.009049
  0.007776
  0.007776
 -0.001136
 -0.001136
 -0.000499
 -0.000499
 -0.001136
  0.007776
 -0.001136
 -0.000499
  0.000137
 -0.000499
  -0.01132
 -0.010683
 -0.008774
 -0.010047
  -0.01132
 -0.010683
 -0.000499
  -0.00941
 -0.010683
 -0.010683
  -0.00941
 -0.010683
  -0.01132
 -0.010047
 -0.008774
 -0.010683
  -0.01132
 -0.010683
  -0.00941
 -0.010683
 -0.010683
 -0.010683
  -0.00941
  -0.00941
 -0.010047
  -0.01132
 -0.010683
 -0.010047
 -0.010683
 -0.010047
 -0.010047
  -0.01132
 -0.010683
  -0.00941
 -0.010047
 -0.010047
 -0.010683
 -0.010047
 -0.010047
 -0.010683
 -0.010047
 -0.010683
 -0.010047
 -0.010047
 -0.010683
 -0.010683
 -0.010683
 -0.010683
 -0.010047
  -0.00941
 -0.010683
 -0.010683
 -0.010683
  -0.00941
 -0.010683
 -0.010047
 -0.010047
  -0.00941
  -0.01132
 -0.010047
 -0.010047
 -0.010047
 -0.010683
 -0.010683
 -0.008774
  -0.01132
  -0.01132
 -0.010683
 -0.008774
 -0.008774
 -0.011956
  -0.00941
 -0.008774
 -0.010683
  -0.01132
 -0.010683
 -0.008774
 -0.010047
 -0.010683
 -0.010683
 -0.010683
 -0.010047
  -0.01132
 -0.010683
 -0.010683
 -0.010683
 -0.008774
 -0.010047
  -0.01132
 -0.010683
 -0.010047
 -0.010683
 -0.011956
 -0.010683
 -0.010683
 -0.010047
 -0.010047
 -0.010683
 -0.010683
 -0.010047
 -0.010047
  -0.01132
 -0.010047
  -0.00941
 -0.010683
  -0.01132
 -0.010683
 -0.008774
  -0.00941
  -0.01132
 -0.010683
  -0.00941
 -0.010683
  -0.01132
 -0.010047
 -0.008774
  -0.01132
 -0.011956
 -0.010683
 -0.008774
  -0.01132
 -0.011956
 -0.010047
 -0.010047
 -0.010683
 -0.010683
 -0.010683
 -0.008774
 -0.008774
  -0.01132
 -0.010683
 -0.008774
 -0.010047
  -0.01132
 -0.010683
 -0.008774
 -0.010683
 -0.010683
 -0.010047
 -0.010047
 -0.010683
  -0.01132
  -0.00941
  -0.00941
 -0.010047
  -0.01132
 -0.010683
 -0.008774
 -0.010047
  -0.01132
 -0.010683
 -0.010047
 -0.008774
 -0.010683
 -0.010683
 -0.010047
  -0.00941
 -0.010683
  -0.01132
 -0.010047
 -0.008774
 -0.010683
  -0.00941
 -0.010047
  -0.00941
  -0.01132
 -0.010047
 -0.010047
 -0.010683
 -0.010047
 -0.010047
  -0.01132
 -0.010047
 -0.011956
 -0.010047
 -0.010683
  -0.01132
  -0.00941
  -0.01132
 -0.010683
 -0.010047
 -0.008774
 -0.010683
 -0.010047
 -0.010047
 -0.010047
 -0.010683
  -0.01132
  -0.00941
  -0.00941
 -0.010047
 -0.010683
 -0.010683
 -0.008137
 -0.010047
  -0.01132
 -0.010683
  -0.00941
 -0.010683
 -0.011956
  -0.00941
 -0.010683
  -0.01132
 -0.010683
  -0.01132
  -0.00941
 -0.010683
 -0.010047
  -0.00941
 -0.010683
  -0.01132
 -0.010047
 -0.008774
 -0.010047
 -0.010683
 -0.010683
 -0.008774
 -0.010683
  -0.01132
 -0.010683
 -0.008774
  -0.00941
  -0.01132
 -0.010683
 -0.010683
  -0.00941
 -0.010683
 -0.011956
 -0.010047
 -0.010683
 -0.010683
 -0.010683
 -0.010047
 -0.010047
 -0.010683
 -0.010047
 -0.010047
 -0.010047
 -0.010683
 -0.010047
 -0.008137
 -0.010683
 -0.010683
 -0.010683
 -0.010047
 -0.010683
 -0.010683
 -0.010683
  -0.00941
 -0.010047
  -0.01132
 -0.010683
  -0.00941
 -0.010683
  -0.01132
  -0.01132
  -0.00941
 -0.010047
  -0.01132
 -0.010047
 -0.008774
 -0.008774
 -0.012593
 -0.010047
 -0.010683
  -0.00941
  -0.01132
 -0.010047
  -0.00941
 -0.010047
  -0.01132
 -0.010683
  -0.00941
  -0.00941
 -0.010683
  -0.00941
  -0.00941
 -0.010047
 -0.010683
  -0.01132
 -0.010683
  -0.00941
  -0.00941
 -0.010683
  -0.01132
 -0.010683
  -0.00941
  -0.00941
 -0.010683
  -0.00941
  -0.01132
 -0.010683
 -0.010683
 -0.008774
 -0.010047
 -0.010683
 -0.010683
 -0.008774
 -0.010683
 -0.010683
  -0.01132
  -0.01132
 -0.008774
  -0.00941
 -0.010683
  -0.01132
 -0.010047
 -0.019595
 -0.010047
 -0.020868
 -0.010683
  -0.01132
 -0.010047
 -0.020868
  -0.01132
  -0.01132
 -0.001772
 -0.010047
  0.009049
  0.007776
  0.009049
 -0.000499
  0.007776
  0.006503
  0.017323
  0.017323
  0.018596
  0.008412
   0.01796
   0.01796
  0.019233
   0.01796
  0.016687
   0.01796
  0.018596
  0.019233
  0.018596
  0.016687
   0.01796
  0.019233
  0.018596
   0.01796
  0.026235
  0.027508
  0.028781
  0.027508
  0.027508
  0.028781
  0.028144
  0.027508
  0.027508
  0.027508
  0.030054
  0.027508
  0.026871
  0.017323
  0.019233
   0.01796
  0.027508
 -0.005246
 -0.002699
 -0.002699
 -0.005246
 -0.010339
 -0.005246
  0.002395
 -0.007792
 -0.012886
 -0.010339
 -0.002699
 -0.012886
 -0.012886
 -0.010339
 -0.005246
 -0.012886
 -0.012886
 -0.007792
 -0.005246
 -0.012886
 -0.012886
 -0.010339
 -0.007792
 -0.007792
 -0.020526
 -0.002699
 -0.002699
 -0.005246
 -0.012886
 -0.010339
 -0.002699
 -0.007792
 -0.012886
 -0.007792
 -0.000152
 -0.005246
 -0.010339
 -0.005246
 -0.002699
 -0.010339
 -0.012886
 -0.007792
 -0.005246
 -0.005246
 -0.012886
 -0.010339
 -0.002699
 -0.005246
 -0.012886
 -0.002699
 -0.002699
 -0.005246
 -0.005246
 -0.007792
 -0.002699
 -0.010339
 -0.005246
 -0.002699
 -0.010339
 -0.012886
 -0.007792
 -0.002699
 -0.007792
 -0.015432
 -0.005246
 -0.007792
 -0.007792
 -0.012886
 -0.007792
 -0.002699
 -0.005246
 -0.012886
 -0.005246
 -0.002699
 -0.007792
 -0.012886
 -0.005246
 -0.002699
 -0.007792
 -0.007792
 -0.012886
 -0.005246
 -0.005246
 -0.010339
 -0.012886
 -0.007792
 -0.002699
 -0.007792
 -0.012886
 -0.012886
 -0.002699
 -0.010339
 -0.007792
 -0.005246
 -0.010339
 -0.007792
 -0.012886
 -0.015432
 -0.007792
 -0.002699
 -0.012886
 -0.005246
 -0.010339
 -0.002699
 -0.007792
 -0.012886
 -0.005246
 -0.007792
 -0.012886
 -0.012886
 -0.007792
 -0.005246
 -0.010339
 -0.005246
 -0.007792
 -0.005246
 -0.012886
 -0.007792
 -0.000152
 -0.010339
 -0.010339
 -0.007792
 -0.005246
 -0.005246
 -0.012886
 -0.005246
 -0.005246
 -0.005246
 -0.012886
 -0.000152
 -0.005246
 -0.012886
 -0.007792
 -0.002699
 -0.005246
 -0.012886
 -0.007792
 -0.002699
 -0.007792
 -0.012886
 -0.010339
 -0.005246
 -0.010339
 -0.012886
 -0.007792
 -0.005246
 -0.005246
 -0.002699
  0.002395
  0.020221
  0.007488
  0.012581
  0.017675
  0.027862
  0.025315
  0.017675
  0.027862
  0.038048
  0.027862
  0.030408
  0.038048
  0.040595
  0.038048
  0.043142
  0.048235
  0.043142
  0.035502
  0.050782
  0.058422
  0.053329
  0.048235
  0.050782
  0.050782
  0.058422
  0.055875
  0.045688
  0.048235
  0.058422
  0.058422
  0.050782
  0.045688
  0.050782
  0.050782
  0.043142
  0.030408
  0.038048
  0.045688
  0.048235
  0.043142
  0.035502
  0.038048
  0.048235
  0.043142
  0.035502
  0.038048
  0.040595
  0.048235
  0.038048
  0.027862
  0.030408
  0.038048
  0.032955
  0.027862
  0.030408
  0.027862
  0.020221
  0.017675
  0.025315
  0.027862
  0.022768
  0.017675
  0.022768
  0.017675
  0.015128
  0.002395
  0.010035
  0.017675
  0.012581
  0.004941
  0.004941
  0.007488
  0.002395
 -0.002699
  0.004941
  0.007488
 -0.005246
 -0.015432
 -0.007792
 -0.000152
 -0.007792
 -0.012886
  0.002395
 -0.005246
 -0.012886
 -0.012886
 -0.007792
 -0.002699
 -0.007792
 -0.012886
 -0.005246
 -0.000152
 -0.010339
 -0.012886
 -0.005246
 -0.005246
 -0.017979
 -0.012886
 -0.002699
 -0.007792
 -0.007792
 -0.005246
 -0.007792
 -0.012886
 -0.010339
 -0.007792
 -0.005246
 -0.012886
 -0.005246
 -0.010339
 -0.012886
 -0.007792
 -0.005246
 -0.005246
 -0.015432
 -0.012886
 -0.002699
 -0.002699
 -0.012886
 -0.007792
 -0.002699
 -0.007792
 -0.012886
 -0.010339
 -0.002699
 -0.005246
 -0.007792
 -0.012886
 -0.005246
 -0.000152
 -0.007792
 -0.012886
 -0.007792
 -0.000152
 -0.005246
 -0.007792
 -0.002699
 -0.010339
 -0.012886
 -0.007792
 -0.002699
 -0.007792
 -0.012886
 -0.005246
 -0.005246
 -0.007792
 -0.010339
 -0.002699
 -0.010339
 -0.012886
 -0.012886
 -0.017979
 -0.035806
 -0.048539
 -0.053633
 -0.053633
 -0.076553
 -0.074006
 -0.053633
 -0.053633
 -0.033259
 -0.025619
  0.007488
  0.002395
  0.096622
  0.106809
  0.297811
  0.295265
  0.389493
  0.392039
   0.46844
   0.47608
  0.557575
  0.552481
  0.616149
  0.616149
  0.710376
  0.702736
  0.758764
  0.763857
  0.865725
  0.860632
  0.873365
  0.881005
  0.911565
  0.911565
  0.954859
  0.957406
  0.965046
  0.959953
  0.952313
  0.959953
  0.944673
  0.916659
  0.881005
  0.873365
  0.875912
  0.819884
  0.799511
  0.771497
   0.76895
  0.684909
  0.669629
  0.611055
  0.613602
  0.527014
  0.519374
  0.384399
  0.389493
  0.274891
  0.272344
  0.180663
  0.188303
  0.104262
  0.099169
 -0.000152
  0.007488
 -0.066366
 -0.074006
 -0.203888
 -0.198794
 -0.280289
 -0.285382
 -0.270102
 -0.267555
 -0.211528
 -0.221715
 -0.155501
 -0.150407
  -0.08674
 -0.091833
 -0.028166
 -0.023072
  0.048235
  0.043142
  0.035502
  0.038048
  0.048235
  0.043142
  0.038048
  0.043142
  0.048235
  0.040595
  0.035502
  0.043142
  0.043142
  0.040595
  0.038048
  0.040595
  0.048235
  0.045688
  0.035502
  0.035502
  0.043142
  0.045688
  0.043142
  0.043142
  0.040595
  0.048235
  0.043142
  0.038048
  0.043142
  0.048235
  0.040595
  0.035502
  0.045688
  0.043142
  0.043142
  0.035502
  0.045688
  0.048235
  0.043142
  0.035502
  0.043142
  0.048235
  0.045688
  0.035502
  0.043142
  0.048235
  0.045688
  0.035502
  0.043142
  0.048235
  0.048235
  0.038048
  0.043142
  0.050782
  0.043142
  0.035502
  0.040595
  0.045688
  0.043142
  0.032955
  0.035502
  0.043142
  0.048235
  0.043142
  0.038048
  0.043142
  0.048235
  0.043142
  0.038048
  0.048235
  0.043142
  0.035502
  0.038048
  0.045688
  0.043142
  0.038048
  0.038048
  0.048235
  0.035502
  0.043142
  0.043142
  0.045688
  0.035502
  0.043142
  0.045688
  0.035502
  0.040595
  0.045688
  0.043142
  0.038048
  0.043142
  0.043142
  0.035502
  0.038048
  0.048235
  0.048235
  0.053329
  0.053329
  0.045688
  0.048235
  0.058422
  0.050782
  0.053329
  0.055875
  0.048235
  0.058422
  0.066062
  0.060969
  0.055875
  0.068609
  0.058422
  0.055875
  0.068609
  0.068609
  0.068609
  0.068609
  0.076249
  0.076249
  0.081342
  0.086436
  0.081342
  0.086436
  0.091529
  0.091529
  0.091529
  0.083889
  0.094076
  0.099169
  0.099169
  0.099169
  0.111903
  0.109356
  0.104262
  0.106809
  0.116996
  0.109356
  0.114449
  0.119543
  0.127183
  0.119543
  0.127183
  0.132276
  0.129729
  0.124636
  0.129729
  0.134823
  0.139916
  0.134823
  0.134823
   0.13737
   0.14501
  0.139916
  0.147556
  0.142463
  0.147556
   0.15265
  0.150103
  0.142463
   0.14501
  0.150103
   0.15265
  0.147556
   0.15265
  0.157743
   0.16793
  0.157743
  0.150103
  0.157743
  0.162836
   0.16029
  0.150103
  0.157743
  0.162836
  0.157743
  0.155196
   0.16029
   0.16029
  0.139916
  0.132276
   0.13737
   0.14501
  0.139916
  0.132276
   0.14501
  0.139916
  0.132276
  0.139916
  0.134823
  0.127183
  0.124636
  0.132276
  0.134823
  0.132276
  0.091529
  0.109356
  0.101716
  0.096622
  0.101716
  0.106809
  0.088982
  0.091529
  0.099169
  0.088982
  0.076249
  0.081342
  0.078795
  0.068609
  0.066062
  0.071155
  0.068609
  0.058422
  0.045688
  0.058422
  0.055875
  0.045688
  0.050782
  0.045688
  0.043142
  0.035502
  0.035502
  0.032955
  0.035502
  0.032955
  0.025315
  0.032955
  0.032955
  0.027862
  0.027862
  0.038048
  0.030408
  0.017675
  0.020221
  0.025315
  0.025315
  0.017675
  0.020221
  0.027862
  0.017675
  0.022768
  0.027862
  0.025315
  0.015128
  0.012581
  0.017675
  0.012581
  0.010035
  0.010035
  0.012581
  0.010035
  0.007488
  0.020221
  0.012581
  0.007488
  0.004941
  0.007488
 -0.000152
  0.002395
  0.007488
  0.004941
 -0.005246
  0.004941
  0.002395
 -0.005246
  0.002395
  0.007488
 -0.005246
 -0.012886
 -0.005246
 -0.002699
 -0.010339
 -0.012886
 -0.012886
 -0.005246
 -0.005246
 -0.007792
 -0.000152
 -0.010339
 -0.012886
 -0.005246
 -0.002699
 -0.007792
 -0.012886
 -0.007792
 -0.000152
 -0.010339
 -0.005246
 -0.002699
 -0.007792
 -0.015432
 -0.007792
 -0.002699
 -0.012886
 -0.012886
 -0.002699
 -0.005246
 -0.012886
 -0.005246
 -0.005246
 -0.010339
 -0.007792
 -0.002699
 -0.010339
 -0.012886
 -0.002699
 -0.005246
 -0.012886
 -0.007792
 -0.002699
 -0.005246
 -0.005246
 -0.002699
 -0.007792
 -0.012886
 -0.005246
 -0.002699
 -0.007792
 -0.012886
 -0.005246
 -0.002699
 -0.012886
 -0.012886
 -0.007792
 -0.002699
 -0.007792
 -0.012886
 -0.007792
 -0.002699
 -0.012886
 -0.010339
 -0.012886
 -0.002699
 -0.007792
 -0.012886
 -0.005246
 -0.000152
 -0.010339
 -0.007792
 -0.002699
 -0.007792
 -0.012886
 -0.010339
 -0.002699
 -0.007792
 -0.015432
 -0.005246
 -0.002699
 -0.010339
 -0.012886
 -0.012886
 -0.007792
 -0.007792
 -0.007792
 -0.012886
 -0.002699
 -0.007792
 -0.007792
 -0.012886
 -0.007792
 -0.002699
 -0.005246
 -0.012886
 -0.007792
 -0.002699
 -0.010339
 -0.015432
 -0.005246
 -0.005246
 -0.005246
 -0.007792
 -0.012886
 -0.010339
 -0.005246
 -0.007792
 -0.012886
 -0.002699
 -0.002699
 -0.007792
 -0.015432
 -0.007792
 -0.002699
 -0.010339
 -0.012886
 -0.007792
 -0.007792
 -0.012886
 -0.007792
 -0.005246
 -0.007792
 -0.015432
 -0.002699
 -0.010339
 -0.007792
 -0.012886
 -0.005246
 -0.010339
 -0.005246
 -0.002699
 -0.007792
 -0.012886
 -0.005246
 -0.000152
 -0.005246
 -0.012886
 -0.010339
 -0.002699
 -0.005246
 -0.007792
 -0.002699
 -0.007792
 -0.010339
 -0.010339
 -0.002699
 -0.010339
 -0.012886
 -0.007792
 -0.002699
 -0.007792
 -0.012886
 -0.005246
 -0.002699
 -0.007792
 -0.012886
 -0.010339
  0.002395
 -0.002699
 -0.015432
 -0.005246
 -0.005246
 -0.007792
 -0.010339
 -0.007792
  0.002395
 -0.010339
 -0.012886
 -0.012886
 -0.002699
 -0.010339
 -0.010339
 -0.010339
 -0.005246
 -0.010339
 -0.012886
 -0.007792
  0.004941
 -0.007792
 -0.012886
 -0.007792
 -0.002699
 -0.007792
 -0.015432
 -0.002699
 -0.005246
 -0.005246
 -0.005246
 -0.012886
 -0.005246
 -0.002699
 -0.010339
 -0.010339
 -0.012886
 -0.002699
 -0.007792
 -0.012886
 -0.005246
 -0.005246
 -0.007792
 -0.015432
 -0.005246
 -0.002699
 -0.007792
 -0.012886
 -0.012886
 -0.002699
 -0.000152
 -0.005246
 -0.012886
 -0.005246
 -0.000152
 -0.007792
 -0.012886
 -0.007792
 -0.005246
 -0.010339
 -0.010339
 -0.007792
 -0.005246
 -0.012886
 -0.007792
 -0.002699
 -0.007792
 -0.012886
 -0.012886
 -0.005246
 -0.007792
 -0.012886
 -0.007792
 -0.002699
 -0.010339
 -0.012886
 -0.007792
 -0.002699
 -0.012886
 -0.010339
 -0.002699
 -0.002699
 -0.012886
 -0.007792
 -0.002699
 -0.002699
 -0.010339
 -0.010339
 -0.002699
 -0.005246
 -0.012886
 -0.005246
 -0.002699
 -0.005246
 -0.010339
 -0.007792
 -0.010339
 -0.002699
 -0.005246
 -0.010339
  0.002395
 -0.007792
 -0.012886
 -0.007792
 -0.002699
 -0.005246
 -0.015432
 -0.007792
 -0.002699
 -0.010339
 -0.015432
 -0.007792
 -0.000152
 -0.012886
 -0.010339
 -0.002699
 -0.007792
 -0.015432
 -0.005246
 -0.002699
 -0.005246
 -0.010339
 -0.005246
 -0.005246
 -0.007792
 -0.005246
 -0.007792
 -0.002699
 -0.005246
 -0.012886
 -0.010339
 -0.002699
 -0.007792
 -0.012886
 -0.007792
 -0.002699
 -0.002699
 -0.005246
 -0.012886
 -0.007792
  0.002395
 -0.005246
 -0.010339
 -0.000152
  0.007488
  0.012581
  0.010035
  0.015128
  0.017675
  0.022768
  0.017675
  0.025315
  0.027862
  0.032955
  0.027862
  0.030408
  0.035502
  0.038048
  0.038048
  0.048235
  0.038048
  0.038048
  0.043142
  0.055875
  0.048235
  0.045688
  0.055875
  0.050782
  0.043142
  0.053329
  0.055875
  0.050782
  0.045688
  0.050782
  0.055875
  0.050782
  0.053329
  0.055875
  0.043142
  0.038048
  0.043142
  0.045688
  0.043142
  0.038048
  0.043142
  0.045688
  0.035502
  0.045688
  0.048235
  0.043142
  0.035502
  0.045688
  0.048235
  0.043142
  0.032955
  0.038048
  0.035502
  0.027862
  0.027862
  0.035502
  0.012581
  0.022768
  0.030408
  0.022768
  0.015128
  0.022768
  0.022768
  0.010035
  0.012581
  0.017675
  0.017675
  0.007488
  0.012581
  0.017675
  0.012581
 -0.002699
  0.007488
  0.002395
  0.002395
 -0.000152
  0.002395
 -0.010339
 -0.010339
 -0.005246
 -0.000152
 -0.007792
 -0.012886
 -0.012886
 -0.005246
 -0.010339
 -0.012886
 -0.007792
 -0.000152
 -0.005246
 -0.015432
 -0.007792
 -0.005246
 -0.005246
 -0.015432
 -0.010339
 -0.005246
 -0.000152
 -0.005246
 -0.012886
 -0.005246
 -0.002699
 -0.005246
 -0.007792
 -0.012886
 -0.007792
 -0.000152
 -0.005246
 -0.012886
 -0.007792
 -0.002699
 -0.010339
 -0.012886
 -0.007792
  0.002395
 -0.005246
 -0.010339
 -0.007792
 -0.002699
 -0.005246
 -0.012886
 -0.012886
 -0.005246
 -0.007792
 -0.007792
 -0.010339
 -0.002699
 -0.005246
 -0.007792
 -0.002699
 -0.005246
 -0.007792
 -0.010339
 -0.002699
 -0.010339
 -0.007792
 -0.012886
 -0.007792
 -0.002699
 -0.007792
 -0.012886
 -0.007792
 -0.002699
 -0.012886
 -0.012886
 -0.007792
 -0.002699
 -0.010339
 -0.012886
 -0.007792
 -0.002699
 -0.017979
 -0.030712
 -0.043446
 -0.038353
 -0.056179
 -0.058726
 -0.066366
 -0.066366
 -0.053633
 -0.056179
 -0.023072
 -0.023072
  0.002395
 -0.002699
  0.099169
  0.106809
  0.300358
  0.295265
  0.392039
  0.392039
  0.478627
   0.46844
  0.555028
  0.557575
  0.618695
  0.613602
  0.702736
  0.710376
  0.763857
   0.76131
  0.863178
  0.868272
  0.873365
  0.881005
  0.919206
  0.926846
  0.952313
  0.949766
  0.965046
  0.957406
  0.952313
  0.939579
  0.942126
  0.875912
  0.883552
  0.873365
  0.870818
  0.804604
  0.802057
   0.76895
  0.763857
  0.672176
  0.674723
  0.618695
  0.608508
  0.519374
  0.524467
  0.389493
  0.381852
  0.272344
  0.279985
  0.188303
  0.185757
  0.099169
  0.106809
 -0.000152
 -0.000152
 -0.074006
 -0.066366
 -0.203888
 -0.198794
 -0.280289
 -0.282836
 -0.270102
 -0.267555
 -0.211528
 -0.206435
 -0.147861
 -0.119847
 -0.084193
 -0.043446
 -0.025619
  0.025315
  0.045688
  0.050782
  0.043142
  0.035502
  0.043142
  0.048235
  0.048235
  0.038048
  0.035502
  0.043142
  0.048235
  0.040595
  0.043142
  0.035502
  0.043142
  0.048235
  0.038048
  0.040595
  0.035502
  0.043142
  0.048235
  0.045688
  0.043142
  0.035502
  0.043142
  0.048235
  0.040595
  0.038048
  0.040595
  0.048235
  0.040595
  0.035502
  0.040595
  0.048235
  0.030408
  0.038048
  0.043142
  0.048235
  0.040595
  0.035502
  0.043142
  0.045688
  0.048235
  0.040595
  0.035502
  0.043142
  0.050782
  0.038048
  0.038048
  0.040595
  0.048235
  0.043142
  0.038048
  0.043142
  0.048235
  0.038048
  0.035502
  0.038048
  0.038048
  0.045688
  0.038048
  0.035502
  0.038048
  0.045688
  0.045688
  0.035502
  0.038048
  0.045688
  0.038048
  0.035502
  0.043142
  0.045688
  0.045688
  0.045688
  0.050782
  0.045688
  0.038048
  0.038048
  0.045688
  0.043142
  0.035502
  0.043142
  0.043142
  0.038048
  0.043142
  0.048235
  0.043142
  0.038048
  0.043142
  0.048235
  0.038048
  0.043142
  0.048235
  0.040595
  0.032955
  0.045688
  0.053329
  0.055875
  0.050782
  0.045688
  0.045688
  0.048235
  0.055875
  0.048235
  0.043142
  0.063515
  0.066062
  0.068609
  0.063515
  0.058422
  0.060969
  0.060969
  0.066062
  0.068609
  0.066062
  0.068609
  0.073702
  0.078795
  0.078795
  0.078795
  0.088982
  0.088982
  0.091529
  0.091529
  0.094076
  0.088982
  0.099169
  0.106809
  0.099169
  0.096622
  0.109356
  0.114449
  0.109356
  0.104262
  0.109356
  0.116996
  0.119543
  0.114449
  0.116996
  0.127183
  0.129729
  0.129729
  0.132276
  0.129729
  0.127183
  0.129729
   0.14501
  0.134823
   0.13737
  0.142463
   0.13737
  0.134823
  0.147556
   0.15265
  0.150103
  0.139916
  0.150103
  0.150103
  0.142463
  0.142463
  0.150103
   0.15265
   0.15265
   0.16029
  0.162836
   0.15265
  0.155196
  0.165383
  0.157743
  0.155196
   0.15265
   0.16793
  0.157743
   0.15265
  0.157743
  0.165383
  0.157743
   0.13737
   0.14501
  0.139916
  0.134823
  0.139916
  0.142463
   0.13737
  0.132276
  0.139916
   0.14501
  0.129729
  0.124636
  0.129729
  0.132276
  0.129729
  0.124636
  0.101716
  0.104262
  0.099169
  0.096622
  0.099169
  0.101716
  0.094076
  0.091529
  0.086436
  0.088982
  0.091529
  0.073702
  0.066062
  0.071155
  0.076249
  0.063515
  0.055875
  0.053329
  0.058422
  0.045688
  0.050782
  0.055875
  0.048235
  0.035502
  0.040595
  0.048235
  0.043142
  0.027862
  0.027862
  0.035502
  0.030408
  0.027862
  0.030408
  0.038048
  0.032955
  0.030408
  0.038048
  0.027862
  0.015128
  0.022768
  0.027862
  0.025315
  0.015128
  0.022768
  0.027862
  0.022768
  0.017675
  0.025315
  0.027862
  0.012581
  0.010035
  0.010035
  0.015128
  0.015128
  0.007488
  0.010035
  0.017675
  0.015128
  0.007488
  0.010035
  0.007488
  0.004941
 -0.005246
 -0.000152
  0.007488
  0.004941
 -0.005246
  0.002395
  0.007488
  0.002395
 -0.002699
  0.002395
 -0.000152
 -0.007792
 -0.010339
 -0.005246
 -0.002699
 -0.010339
 -0.012886
 -0.010339
 -0.002699
 -0.007792
 -0.012886
 -0.010339
 -0.002699
 -0.007792
 -0.012886
 -0.007792
 -0.002699
 -0.007792
 -0.017979
 -0.007792
 -0.000152
 -0.007792
 -0.010339
 -0.007792
 -0.002699
 -0.007792
 -0.012886
 -0.007792
 -0.002699
 -0.010339
 -0.012886
 -0.010339
 -0.005246
 -0.007792
 -0.012886
 -0.007792
 -0.000152
 -0.005246
 -0.010339
 -0.005246
 -0.005246
 -0.002699
 -0.007792
 -0.012886
 -0.012886
 -0.007792
 -0.005246
 -0.007792
 -0.012886
 -0.007792
 -0.002699
 -0.007792
 -0.010339
 -0.010339
 -0.007792
 -0.002699
 -0.010339
 -0.015432
 -0.007792
  0.004941
 -0.002699
 -0.005246
 -0.012886
 -0.007792
 -0.005246
 -0.005246
 -0.012886
 -0.007792
 -0.002699
 -0.005246
 -0.002699
 -0.005246
 -0.000152
 -0.007792
 -0.010339
 -0.007792
 -0.000152
 -0.010339
 -0.012886
 -0.007792
 -0.002699
 -0.005246
 -0.010339
 -0.010339
 -0.002699
 -0.010339
 -0.012886
 -0.007792
 -0.000152
 -0.007792
 -0.012886
 -0.007792
 -0.005246
 -0.012886
 -0.005246
 -0.002699
 -0.010339
 -0.012886
 -0.012886
 -0.000152
 -0.005246
 -0.012886
 -0.005246
 -0.000152
 -0.007792
 -0.007792
 -0.007792
 -0.002699
 -0.005246
 -0.012886
 -0.010339
 -0.005246
 -0.005246
 -0.010339
 -0.007792
 -0.000152
 -0.005246
 -0.015432
 -0.005246
 -0.000152
 -0.012886
 -0.012886
 -0.005246
 -0.002699
 -0.010339
 -0.010339
 -0.010339
 -0.000152
 -0.007792
 -0.012886
 -0.007792
 -0.002699
 -0.007792
 -0.012886
 -0.012886
 -0.005246
 -0.007792
 -0.012886
 -0.007792
 -0.005246
 -0.005246
 -0.012886
 -0.007792
 -0.002699
 -0.010339
 -0.012886
 -0.010339
 -0.002699
 -0.000152
 -0.007792
 -0.012886
 -0.007792
  0.002395
 -0.007792
 -0.007792
 -0.010339
 -0.005246
 -0.002699
 -0.005246
 -0.007792
 -0.012886
 -0.007792
 -0.002699
 -0.010339
 -0.012886
 -0.007792
 -0.002699
 -0.002699
 -0.010339
 -0.015432
 -0.005246
 -0.005246
 -0.007792
 -0.015432
 -0.005246
 -0.005246
 -0.007792
 -0.010339
 -0.005246
 -0.005246
 -0.005246
 -0.012886
 -0.010339
 -0.005246
 -0.005246
 -0.010339
 -0.012886
 -0.007792
 -0.000152
 -0.005246
 -0.020526
 -0.010339
 -0.002699
 -0.007792
 -0.012886
 -0.010339
 -0.002699
 -0.007792
 -0.007792
 -0.007792
 -0.000152
 -0.007792
 -0.012886
 -0.005246
 -0.002699
 -0.010339
 -0.012886
 -0.007792
 -0.002699
 -0.005246
 -0.012886
 -0.012886
 -0.007792
 -0.002699
 -0.005246
 -0.017979
 -0.007792
 -0.002699
 -0.010339
 -0.012886
 -0.012886
 -0.005246
 -0.002699
 -0.005246
 -0.015432
 -0.010339
 -0.002699
 -0.005246
 -0.012886
 -0.010339
 -0.005246
 -0.007792
 -0.012886
 -0.010339
 -0.002699
 -0.010339
 -0.012886
 -0.007792
 -0.000152
 -0.005246
 -0.010339
 -0.007792
 -0.002699
 -0.002699
 -0.005246
 -0.015432
 -0.007792
 -0.002699
 -0.005246
 -0.010339
 -0.005246
 -0.010339
 -0.005246
 -0.012886
 -0.007792
 -0.002699
 -0.007792
 -0.012886
 -0.010339
 -0.005246
 -0.010339
 -0.012886
 -0.005246
 -0.000152
 -0.010339
 -0.012886
 -0.007792
 -0.005246
 -0.010339
 -0.007792
 -0.012886
 -0.002699
 -0.005246
 -0.012886
 -0.010339
 -0.007792
 -0.002699
 -0.005246
 -0.012886
 -0.007792
  0.002395
 -0.007792
 -0.012886
 -0.007792
 -0.007792
 -0.005246
 -0.007792
 -0.005246
 -0.012886
 -0.007792
 -0.002699
 -0.002699
 -0.007792
 -0.012886
 -0.012886
 -0.005246
 -0.002699
 -0.002699
 -0.007792
 -0.005246
 -0.002699
  0.012581
  0.015128
  0.017675
  0.010035
  0.025315
  0.015128
  0.020221
  0.027862
  0.038048
  0.030408
  0.027862
  0.032955
  0.043142
  0.045688
  0.045688
  0.040595
  0.035502
  0.045688
  0.050782
  0.058422
  0.048235
  0.050782
  0.048235
  0.050782
  0.055875
  0.053329
  0.045688
  0.050782
  0.048235
  0.055875
  0.050782
  0.048235
  0.055875
  0.048235
  0.043142
  0.040595
  0.038048
  0.043142
  0.048235
  0.043142
  0.035502
  0.043142
  0.048235
  0.043142
  0.038048
  0.035502
  0.043142
  0.048235
  0.045688
  0.035502
  0.032955
  0.035502
  0.032955
  0.035502
  0.025315
  0.022768
  0.027862
  0.027862
  0.020221
  0.025315
  0.027862
  0.022768
  0.007488
  0.015128
  0.017675
  0.012581
  0.007488
  0.010035
  0.020221
  0.007488
  0.002395
  0.007488
 -0.000152
 -0.002699
 -0.000152
  0.007488
 -0.010339
 -0.015432
 -0.007792
 -0.005246
 -0.007792
 -0.012886
 -0.007792
 -0.002699
 -0.007792
 -0.012886
 -0.007792
 -0.002699
 -0.005246
 -0.012886
 -0.007792
 -0.002699
 -0.007792
 -0.012886
 -0.007792
 -0.002699
 -0.005246
 -0.012886
 -0.010339
 -0.000152
 -0.005246
 -0.012886
 -0.015432
 -0.005246
 -0.002699
 -0.010339
 -0.017979
 -0.005246
 -0.002699
 -0.005246
 -0.012886
 -0.007792
 -0.000152
 -0.005246
 -0.012886
 -0.007792
 -0.005246
 -0.010339
 -0.012886
 -0.005246
 -0.010339
 -0.012886
 -0.010339
 -0.005246
 -0.010339
 -0.012886
 -0.005246
 -0.002699
 -0.010339
 -0.010339
 -0.012886
 -0.002699
 -0.007792
 -0.012886
 -0.007792
 -0.000152
 -0.005246
 -0.012886
 -0.005246
 -0.000152
 -0.010339
 -0.010339
 -0.002699
 -0.005246
 -0.010339
 -0.010339
 -0.002699
 -0.012886
 -0.007792
 -0.005246
 -0.025619
 -0.030712
 -0.043446
 -0.040899
 -0.053633
 -0.058726
  -0.07146
  -0.07146
 -0.058726
 -0.053633
 -0.020526
 -0.023072
  0.002395
  0.007488
  0.101716
  0.096622
  0.300358
  0.302905
  0.386946
  0.381852
  0.473534
   0.47608
  0.547388
  0.552481
  0.626335
  0.616149
   0.70019
  0.705283
  0.771497
  0.789324
  0.858085
  0.873365
  0.883552
  0.901379
  0.909019
  0.954859
  0.957406
  0.949766
  0.959953
  0.962499
  0.959953
  0.934486
  0.937032
  0.886098
  0.881005
  0.870818
  0.870818
  0.809698
  0.802057
  0.758764
   0.76131
  0.677269
  0.682363
  0.608508
  0.608508
  0.529561
  0.519374
  0.384399
  0.384399
  0.277438
  0.272344
  0.180663
   0.19085
  0.101716
  0.096622
  0.002395
  0.007488
  -0.07146
   -0.0791
 -0.191154
 -0.214075
 -0.290476
 -0.267555
 -0.267555
 -0.236995
 -0.219168
 -0.158047
 -0.155501
 -0.099473
  -0.08674
 -0.030712
 -0.025619
  0.035502
  0.040595
  0.035502
  0.043142
  0.045688
  0.043142
  0.035502
  0.043142
  0.048235
  0.043142
  0.038048
  0.043142
  0.043142
  0.038048
  0.040595
  0.048235
  0.048235
  0.045688
  0.040595
  0.048235
  0.038048
  0.038048
  0.048235
  0.043142
  0.038048
  0.045688
  0.045688
  0.040595
  0.043142
  0.048235
  0.035502
  0.043142
  0.043142
  0.040595
  0.038048
  0.040595
  0.040595
  0.038048
  0.040595
  0.048235
  0.035502
  0.040595
  0.048235
  0.035502
  0.035502
  0.043142
  0.050782
  0.040595
  0.035502
  0.040595
  0.048235
  0.040595
  0.032955
  0.040595
  0.048235
  0.040595
  0.035502
  0.038048
  0.048235
  0.040595
  0.035502
  0.040595
  0.045688
  0.043142
  0.040595
  0.038048
  0.043142
  0.048235
  0.043142
  0.035502
  0.040595
  0.048235
  0.045688
  0.038048
  0.040595
  0.048235
  0.045688
  0.038048
  0.038048
  0.048235
  0.043142
  0.032955
  0.048235
  0.043142
  0.035502
  0.043142
  0.048235
  0.040595
  0.038048
  0.048235
  0.043142
  0.035502
  0.045688
  0.048235
  0.038048
  0.043142
  0.053329
  0.040595
  0.050782
  0.058422
  0.053329
  0.045688
  0.050782
  0.053329
  0.045688
  0.048235
  0.058422
  0.066062
  0.053329
  0.063515
  0.066062
  0.058422
  0.055875
  0.058422
  0.068609
  0.066062
  0.073702
  0.081342
  0.083889
  0.078795
  0.088982
  0.086436
  0.083889
  0.088982
  0.099169
  0.088982
  0.088982
  0.106809
  0.101716
  0.094076
  0.106809
  0.109356
  0.104262
  0.109356
  0.109356
  0.106809
  0.109356
  0.124636
  0.122089
  0.116996
  0.119543
  0.134823
  0.129729
  0.127183
  0.129729
  0.132276
  0.132276
  0.132276
  0.139916
  0.147556
   0.14501
  0.139916
  0.132276
  0.147556
  0.157743
   0.15265
  0.147556
  0.142463
  0.150103
  0.147556
  0.150103
  0.139916
   0.16029
   0.16029
   0.15265
   0.16029
  0.162836
   0.16029
   0.15265
  0.157743
   0.16793
   0.16029
   0.15265
   0.16029
  0.162836
   0.16029
   0.15265
  0.155196
   0.14501
  0.139916
  0.139916
  0.139916
  0.139916
   0.13737
   0.13737
  0.142463
  0.132276
  0.134823
  0.139916
  0.129729
  0.124636
  0.129729
  0.129729
  0.124636
  0.099169
  0.106809
  0.099169
  0.101716
  0.104262
  0.094076
  0.088982
  0.088982
  0.096622
  0.076249
  0.081342
  0.076249
  0.068609
  0.071155
  0.073702
  0.063515
  0.055875
  0.048235
  0.050782
  0.045688
  0.050782
  0.058422
  0.045688
  0.040595
  0.048235
  0.045688
  0.040595
  0.035502
  0.027862
  0.032955
  0.038048
  0.027862
  0.038048
  0.035502
  0.030408
  0.025315
  0.027862
  0.027862
  0.017675
  0.022768
  0.027862
  0.022768
  0.017675
  0.027862
  0.022768
  0.017675
  0.022768
  0.027862
  0.017675
  0.012581
  0.017675
  0.012581
  0.007488
  0.010035
  0.015128
  0.004941
  0.015128
  0.017675
  0.010035
  0.010035
  0.002395
  0.002395
 -0.000152
  0.002395
  0.007488
  0.002395
  0.004941
  0.007488
  0.002395
 -0.002699
  0.002395
  0.002395
 -0.012886
 -0.010339
 -0.000152
 -0.012886
 -0.007792
  0.002395
 -0.010339
 -0.010339
 -0.002699
 -0.005246
 -0.010339
 -0.007792
  0.002395
 -0.010339
 -0.012886
 -0.007792
 -0.002699
 -0.005246
 -0.005246
 -0.002699
 -0.010339
 -0.012886
 -0.007792
 -0.002699
 -0.010339
 -0.012886
 -0.005246
 -0.002699
 -0.012886
 -0.010339
 -0.005246
 -0.007792
 -0.012886
 -0.007792
 -0.000152
 -0.007792
 -0.010339
 -0.010339
 -0.002699
 -0.007792
 -0.012886
 -0.012886
 -0.005246
 -0.012886
 -0.010339
 -0.000152
 -0.010339
 -0.010339
 -0.010339
 -0.005246
 -0.005246
 -0.012886
 -0.005246
 -0.007792
 -0.012886
 -0.005246
 -0.002699
 -0.005246
 -0.012886
 -0.007792
 -0.002699
 -0.005246
 -0.012886
 -0.007792
 -0.005246
 -0.007792
 -0.012886
 -0.010339
 -0.005246
 -0.012886
 -0.010339
 -0.002699
 -0.010339
 -0.012886
 -0.007792
 -0.002699
 -0.010339
 -0.007792
 -0.005246
 -0.007792
 -0.012886
 -0.007792
 -0.002699
 -0.007792
 -0.010339
 -0.000152
 -0.007792
 -0.012886
 -0.010339
 -0.002699
 -0.007792
 -0.012886
 -0.007792
 -0.002699
 -0.010339
 -0.005246
 -0.002699
 -0.010339
 -0.012886
 -0.002699
 -0.007792
 -0.012886
 -0.007792
 -0.005246
 -0.005246
 -0.012886
 -0.007792
 -0.002699
 -0.010339
 -0.005246
  0.002395
 -0.007792
 -0.012886
 -0.007792
 -0.002699
 -0.012886
 -0.005246
 -0.002699
 -0.010339
 -0.007792
 -0.015432
 -0.007792
 -0.005246
 -0.007792
 -0.012886
 -0.007792
 -0.002699
 -0.002699
 -0.005246
 -0.012886
 -0.005246
 -0.007792
 -0.010339
 -0.010339
 -0.010339
 -0.002699
 -0.005246
 -0.012886
 -0.010339
 -0.000152
 -0.005246
 -0.007792
 -0.015432
 -0.007792
 -0.002699
 -0.007792
 -0.012886
 -0.005246
 -0.007792
 -0.005246
 -0.007792
 -0.010339
 -0.010339
 -0.005246
 -0.010339
 -0.012886
 -0.012886
 -0.007792
 -0.000152
 -0.010339
 -0.012886
 -0.010339
 -0.010339
 -0.010339
 -0.012886
 -0.005246
 -0.000152
 -0.005246
 -0.012886
 -0.007792
 -0.002699
 -0.005246
 -0.012886
 -0.007792
 -0.002699
 -0.007792
 -0.015432
 -0.005246
 -0.002699
 -0.010339
 -0.010339
 -0.005246
 -0.002699
 -0.010339
 -0.012886
 -0.007792
 -0.007792
 -0.010339
 -0.015432
 -0.010339
 -0.000152
 -0.007792
 -0.007792
 -0.012886
 -0.005246
 -0.010339
 -0.012886
 -0.007792
 -0.007792
 -0.005246
 -0.005246
 -0.012886
 -0.002699
 -0.012886
 -0.010339
 -0.010339
 -0.002699
 -0.010339
 -0.012886
 -0.007792
 -0.002699
 -0.010339
 -0.012886
 -0.010339
 -0.002699
 -0.012886
 -0.007792
 -0.002699
 -0.007792
 -0.012886
 -0.010339
 -0.002699
 -0.012886
 -0.010339
 -0.002699
 -0.010339
 -0.012886
 -0.010339
 -0.000152
 -0.007792
 -0.012886
 -0.005246
 -0.010339
 -0.012886
 -0.005246
 -0.002699
 -0.010339
 -0.012886
 -0.005246
 -0.002699
 -0.010339
 -0.010339
 -0.007792
 -0.005246
 -0.012886
 -0.007792
 -0.000152
 -0.007792
 -0.012886
 -0.002699
 -0.010339
 -0.015432
 -0.007792
 -0.002699
 -0.010339
 -0.012886
 -0.007792
 -0.002699
 -0.005246
 -0.012886
 -0.010339
 -0.005246
 -0.010339
 -0.010339
 -0.010339
 -0.002699
 -0.010339
 -0.012886
 -0.007792
 -0.002699
 -0.005246
 -0.012886
 -0.002699
 -0.010339
 -0.012886
 -0.005246
 -0.005246
 -0.007792
 -0.012886
 -0.010339
 -0.000152
 -0.005246
 -0.005246
 -0.005246
 -0.002699
 -0.010339
 -0.015432
 -0.005246
  0.007488
 -0.007792
 -0.012886
 -0.010339
 -0.002699
 -0.010339
 -0.007792
 -0.002699
 -0.007792
 -0.012886
 -0.007792
  0.002395
 -0.010339
 -0.005246
 -0.000152
  0.017675
  0.012581
  0.010035
  0.015128
  0.027862
  0.022768
  0.017675
  0.027862
  0.040595
  0.035502
  0.025315
  0.043142
  0.045688
  0.043142
  0.043142
  0.045688
  0.043142
  0.040595
  0.053329
  0.058422
  0.053329
  0.045688
  0.055875
  0.058422
  0.053329
  0.048235
  0.050782
  0.058422
  0.053329
  0.050782
  0.058422
  0.050782
  0.048235
  0.038048
  0.040595
  0.038048
  0.040595
  0.045688
  0.043142
  0.043142
  0.050782
  0.043142
  0.038048
  0.043142
  0.048235
  0.043142
  0.035502
  0.048235
  0.030408
  0.025315
  0.030408
  0.038048
  0.025315
  0.030408
  0.027862
  0.025315
  0.015128
  0.022768
  0.027862
  0.020221
  0.015128
  0.025315
  0.012581
  0.007488
  0.015128
  0.017675
  0.012581
  0.007488
  0.007488
  0.010035
  0.004941
 -0.002699
  0.002395
  0.007488
  0.002395
 -0.002699
 -0.007792
 -0.002699
 -0.005246
 -0.012886
 -0.007792
 -0.002699
 -0.005246
 -0.012886
 -0.002699
 -0.012886
 -0.012886
 -0.005246
 -0.005246
 -0.010339
 -0.012886
 -0.007792
 -0.002699
 -0.007792
 -0.012886
 -0.007792
 -0.002699
 -0.010339
 -0.012886
 -0.010339
 -0.000152
 -0.007792
 -0.012886
 -0.007792
 -0.002699
 -0.007792
 -0.010339
 -0.007792
 -0.002699
 -0.005246
 -0.012886
 -0.010339
 -0.012886
 -0.012886
 -0.010339
 -0.002699
 -0.007792
 -0.015432
 -0.010339
 -0.002699
 -0.007792
 -0.012886
 -0.007792
 -0.005246
 -0.012886
 -0.007792
 -0.002699
 -0.007792
 -0.002699
 -0.012886
 -0.002699
 -0.007792
 -0.012886
 -0.007792
 -0.002699
 -0.005246
 -0.010339
 -0.005246
 -0.000152
 -0.007792
 -0.010339
 -0.007792
 -0.002699
 -0.005246
 -0.012886
 -0.005246
 -0.005246
 -0.002699
 -0.007792
 -0.015432
 -0.023072
 -0.023072
 -0.040899
 -0.048539
 -0.053633
 -0.048539
  -0.07146
 -0.076553
 -0.053633
 -0.043446
 -0.025619
 -0.023072
  0.002395
 -0.002699
  0.109356
  0.101716
  0.292718
  0.300358
  0.389493
  0.389493
   0.46844
  0.499001
  0.557575
  0.593228
  0.623789
  0.690003
   0.70783
  0.751124
  0.771497
  0.863178
  0.863178
  0.873365
  0.883552
  0.914112
  0.903925
  0.954859
  0.962499
  0.957406
  0.954859
  0.962499
  0.954859
  0.934486
  0.939579
  0.883552
  0.873365
  0.870818
  0.875912
  0.802057
  0.804604
   0.76895
  0.763857
  0.674723
  0.677269
  0.608508
  0.600868
  0.521921
  0.529561
  0.386946
  0.392039
  0.274891
  0.279985
  0.188303
  0.165383
  0.101716
  0.048235
 -0.002699
 -0.053633
 -0.068913
 -0.178421
 -0.206435
 -0.277742
 -0.285382
 -0.275195
 -0.267555
 -0.219168
 -0.216621
 -0.155501
 -0.150407
 -0.089287
 -0.091833
 -0.033259
 -0.025619
  0.048235
  0.043142
  0.043142
  0.050782
  0.043142
  0.035502
  0.040595
  0.045688
  0.045688
  0.038048
  0.043142
  0.045688
  0.043142
  0.035502
  0.043142
  0.043142
  0.040595
  0.038048
  0.050782
  0.043142
  0.038048
  0.038048
  0.048235
  0.045688
  0.040595
  0.043142
  0.048235
  0.045688
  0.038048
  0.040595
  0.048235
  0.043142
  0.035502
  0.038048
  0.048235
  0.040595
  0.035502
  0.043142
  0.048235
  0.043142
  0.043142
  0.040595
  0.043142
  0.048235
  0.038048
  0.035502
  0.043142
  0.045688
  0.038048
  0.040595
  0.040595
  0.048235
  0.045688
  0.035502
  0.040595
  0.045688
  0.043142
  0.038048
  0.040595
  0.043142
  0.038048
  0.040595
  0.048235
  0.040595
  0.038048
  0.040595
  0.050782
  0.043142
  0.038048
  0.043142
  0.048235
  0.035502
  0.043142
  0.048235
  0.040595
  0.035502
  0.038048
  0.048235
  0.043142
  0.035502
  0.040595
  0.050782
  0.040595
  0.035502
  0.045688
  0.048235
  0.045688
  0.030408
  0.040595
  0.048235
  0.040595
  0.038048
  0.040595
  0.045688
  0.045688
  0.038048
  0.048235
  0.053329
  0.048235
  0.048235
  0.048235
  0.058422
  0.050782
  0.048235
  0.058422
  0.050782
  0.058422
  0.060969
  0.068609
  0.058422
  0.055875
  0.060969
  0.063515
  0.063515
  0.071155
  0.076249
  0.068609
  0.076249
  0.086436
  0.078795
  0.088982
  0.091529
  0.083889
  0.088982
  0.096622
  0.091529
  0.088982
  0.099169
  0.104262
  0.101716
  0.094076
  0.109356
  0.116996
  0.109356
  0.104262
  0.109356
  0.106809
  0.114449
  0.119543
  0.127183
  0.119543
  0.119543
  0.129729
  0.134823
  0.129729
  0.119543
  0.129729
   0.14501
  0.139916
  0.132276
   0.13737
  0.142463
   0.14501
   0.14501
  0.147556
  0.150103
  0.147556
   0.14501
  0.150103
   0.15265
   0.14501
  0.147556
  0.162836
   0.16029
  0.150103
   0.16029
  0.165383
  0.157743
  0.150103
  0.157743
  0.157743
   0.15265
   0.16029
  0.162836
   0.16029
  0.150103
   0.16029
  0.157743
  0.134823
  0.139916
  0.139916
  0.142463
  0.134823
   0.14501
  0.139916
  0.132276
   0.13737
  0.142463
  0.129729
  0.124636
  0.132276
   0.13737
  0.129729
  0.104262
  0.099169
  0.106809
  0.094076
  0.094076
  0.101716
  0.088982
  0.083889
  0.088982
  0.091529
  0.076249
  0.078795
  0.073702
  0.071155
  0.066062
  0.066062
  0.068609
  0.063515
  0.045688
  0.053329
  0.055875
  0.048235
  0.048235
  0.050782
  0.048235
  0.045688
  0.035502
  0.040595
  0.038048
  0.027862
  0.027862
  0.027862
  0.038048
  0.035502
  0.025315
  0.030408
  0.038048
  0.032955
  0.017675
  0.015128
  0.022768
  0.027862
  0.022768
  0.015128
  0.027862
  0.027862
  0.025315
  0.017675
  0.022768
  0.020221
  0.012581
  0.007488
  0.012581
  0.017675
  0.022768
  0.004941
  0.012581
  0.022768
  0.012581
  0.007488
  0.010035
  0.007488
  0.002395
 -0.002699
  0.002395
  0.007488
  0.002395
 -0.002699
  0.002395
  0.007488
  0.002395
 -0.000152
  0.002395
 -0.005246
 -0.005246
 -0.007792
 -0.012886
 -0.007792
 -0.002699
 -0.007792
 -0.012886
 -0.007792
 -0.002699
 -0.007792
 -0.010339
 -0.010339
 -0.007792
 -0.002699
 -0.002699
 -0.015432
 -0.007792
 -0.007792
 -0.007792
 -0.012886
 -0.012886
 -0.010339
 -0.010339
 -0.010339
 -0.012886
 -0.005246
 -0.002699
 -0.007792
 -0.010339
 -0.007792
  0.002395
 -0.010339
 -0.012886
 -0.010339
 -0.007792
 -0.002699
 -0.010339
 -0.012886
 -0.010339
 -0.002699
 -0.005246
 -0.012886
 -0.010339
 -0.002699
 -0.005246
 -0.010339
 -0.012886
 -0.007792
 -0.002699
 -0.005246
 -0.012886
 -0.005246
 -0.007792
 -0.012886
 -0.015432
 -0.007792
 -0.000152
 -0.007792
 -0.012886
 -0.007792
 -0.000152
 -0.007792
 -0.012886
 -0.005246
 -0.002699
 -0.007792
 -0.010339
 -0.010339
 -0.000152
 -0.007792
 -0.012886
 -0.005246
 -0.005246
 -0.005246
 -0.010339
 -0.007792
  0.002395
 -0.005246
 -0.010339
 -0.007792
 -0.002699
 -0.010339
 -0.012886
 -0.007792
 -0.000152
 -0.010339
 -0.012886
 -0.007792
 -0.002699
 -0.005246
 -0.007792
 -0.012886
 -0.002699
 -0.010339
 -0.012886
 -0.007792
 -0.005246
 -0.007792
 -0.015432
 -0.005246
 -0.005246
 -0.000152
 -0.010339
 -0.012886
 -0.007792
 -0.002699
 -0.010339
 -0.012886
 -0.012886
 -0.002699
 -0.005246
 -0.010339
 -0.007792
 -0.000152
 -0.007792
 -0.012886
 -0.010339
 -0.002699
 -0.002699
 -0.007792
 -0.015432
 -0.002699
 -0.005246
 -0.015432
 -0.005246
 -0.002699
 -0.002699
 -0.002699
 -0.012886
 -0.002699
 -0.005246
 -0.012886
 -0.015432
 -0.010339
 -0.007792
 -0.010339
 -0.007792
 -0.002699
 -0.007792
 -0.012886
 -0.005246
 -0.005246
 -0.010339
 -0.012886
 -0.000152
 -0.010339
 -0.012886
 -0.010339
 -0.002699
 -0.005246
 -0.012886
 -0.012886
 -0.002699
 -0.007792
 -0.012886
 -0.007792
 -0.002699
 -0.007792
 -0.012886
 -0.010339
 -0.005246
 -0.010339
 -0.012886
 -0.002699
 -0.010339
 -0.012886
 -0.010339
 -0.002699
 -0.007792
 -0.012886
 -0.007792
 -0.005246
 -0.002699
 -0.012886
 -0.007792
 -0.002699
 -0.007792
 -0.012886
 -0.010339
 -0.002699
 -0.007792
 -0.017979
 -0.005246
 -0.002699
 -0.015432
 -0.010339
 -0.005246
 -0.007792
 -0.012886
 -0.012886
 -0.010339
 -0.002699
 -0.007792
 -0.012886
 -0.012886
 -0.005246
 -0.010339
 -0.012886
 -0.012886
 -0.002699
 -0.002699
 -0.012886
 -0.010339
 -0.005246
 -0.005246
 -0.012886
 -0.007792
 -0.005246
 -0.012886
 -0.012886
 -0.002699
 -0.005246
 -0.005246
 -0.012886
 -0.007792
 -0.002699
 -0.007792
 -0.015432
 -0.010339
 -0.002699
 -0.010339
 -0.007792
 -0.012886
 -0.007792
 -0.002699
 -0.010339
 -0.012886
 -0.007792
 -0.002699
 -0.007792
 -0.015432
 -0.002699
 -0.005246
 -0.012886
 -0.005246
 -0.002699
 -0.010339
 -0.012886
 -0.005246
 -0.002699
 -0.005246
 -0.010339
 -0.010339
 -0.010339
 -0.012886
 -0.010339
 -0.002699
 -0.010339
 -0.012886
 -0.010339
 -0.002699
 -0.005246
 -0.010339
 -0.007792
 -0.000152
 -0.012886
 -0.007792
 -0.000152
 -0.007792
 -0.012886
 -0.007792
 -0.002699
 -0.000152
 -0.007792
 -0.012886
 -0.005246
 -0.002699
 -0.005246
 -0.012886
 -0.005246
 -0.002699
 -0.007792
 -0.010339
 -0.007792
 -0.005246
 -0.007792
 -0.012886
 -0.002699
 -0.007792
 -0.012886
 -0.007792
 -0.002699
  0.002395
 -0.012886
 -0.005246
 -0.002699
 -0.005246
 -0.010339
 -0.007792
 -0.000152
 -0.007792
 -0.010339
  0.002395
 -0.007792
 -0.015432
 -0.010339
 -0.000152
 -0.005246
 -0.002699
  0.007488
  0.017675
  0.004941
  0.007488
  0.017675
  0.027862
  0.022768
  0.017675
  0.032955
  0.038048
  0.030408
  0.025315
  0.040595
  0.043142
  0.032955
  0.045688
  0.045688
  0.043142
  0.045688
  0.055875
  0.050782
  0.043142
  0.053329
  0.055875
  0.053329
  0.045688
  0.053329
  0.050782
  0.048235
  0.055875
  0.050782
  0.055875
  0.048235
  0.053329
  0.048235
  0.043142
  0.035502
  0.043142
  0.038048
  0.038048
  0.045688
  0.048235
  0.045688
  0.035502
  0.043142
  0.045688
  0.040595
  0.038048
  0.040595
  0.038048
  0.027862
  0.025315
  0.027862
  0.038048
  0.032955
  0.017675
  0.022768
  0.025315
  0.022768
  0.015128
  0.020221
  0.017675
  0.017675
  0.010035
  0.017675
  0.017675
  0.012581
  0.007488
  0.017675
  0.020221
  0.015128
 -0.002699
  0.004941
  0.002395
 -0.002699
  0.004941
  0.007488
 -0.010339
 -0.012886
 -0.007792
 -0.002699
 -0.010339
 -0.010339
 -0.005246
 -0.007792
 -0.010339
 -0.007792
 -0.002699
 -0.005246
 -0.012886
 -0.010339
  0.002395
 -0.010339
 -0.012886
 -0.007792
 -0.000152
 -0.007792
 -0.012886
 -0.007792
 -0.005246
 -0.012886
 -0.005246
 -0.002699
 -0.007792
 -0.012886
 -0.010339
 -0.002699
 -0.005246
 -0.012886
 -0.007792
 -0.000152
 -0.005246
 -0.012886
 -0.007792
 -0.005246
 -0.010339
 -0.010339
 -0.002699
 -0.007792
 -0.012886
 -0.007792
  0.002395
 -0.010339
 -0.012886
 -0.007792
 -0.002699
 -0.012886
 -0.007792
 -0.005246
 -0.007792
 -0.012886
 -0.007792
 -0.002699
 -0.002699
 -0.012886
 -0.007792
 -0.002699
 -0.010339
 -0.012886
 -0.007792
 -0.007792
 -0.010339
 -0.007792
 -0.005246
 -0.005246
 -0.007792
 -0.007792
 -0.002699
 -0.005246
 -0.012886
 -0.007792
 -0.020526
 -0.030712
 -0.051086
 -0.048539
 -0.053633
 -0.051086
  -0.07146
 -0.074006
 -0.048539
 -0.056179
 -0.033259
 -0.025619
  0.010035
  0.002395
  0.091529
  0.173023
  0.300358
  0.351292
  0.389493
    0.4608
   0.47608
  0.539748
  0.557575
  0.611055
  0.618695
   0.70783
  0.702736
  0.756217
  0.766404
  0.860632
  0.858085
  0.881005
  0.886098
  0.906472
  0.903925
  0.954859
  0.962499
  0.952313
  0.957406
  0.962499
  0.954859
  0.931939
  0.939579
  0.883552
  0.873365
  0.873365
  0.873365
  0.802057
  0.796964
   0.76131
   0.76895
  0.672176
  0.679816
  0.611055
  0.605962
  0.519374
  0.496454
  0.386946
  0.323278
  0.272344
   0.21377
  0.188303
  0.109356
  0.104262
  0.010035
 -0.005246
  -0.07146
 -0.066366
 -0.196248
 -0.206435
 -0.285382
 -0.277742
 -0.265009
 -0.270102
 -0.216621
 -0.216621
 -0.155501
 -0.147861
 -0.084193
 -0.091833
 -0.028166
 -0.023072
  0.043142
  0.038048
  0.038048
  0.045688
  0.040595
  0.035502
  0.045688
  0.048235
  0.043142
  0.043142
  0.043142
  0.048235
  0.043142
  0.032955
  0.048235
  0.043142
  0.035502
  0.043142
  0.048235
  0.045688
  0.038048
  0.043142
  0.040595
  0.035502
  0.043142
  0.050782
  0.040595
  0.035502
  0.043142
  0.045688
  0.035502
  0.038048
  0.043142
  0.043142
  0.035502
  0.040595
  0.048235
  0.045688
  0.040595
  0.040595
  0.040595
  0.045688
  0.038048
  0.045688
  0.040595
  0.038048
  0.043142
  0.048235
  0.038048
  0.038048
  0.045688
  0.045688
  0.045688
  0.035502
  0.040595
  0.045688
  0.043142
  0.038048
  0.043142
  0.045688
  0.035502
  0.038048
  0.048235
  0.043142
  0.040595
  0.048235
  0.040595
  0.038048
  0.043142
  0.048235
  0.043142
  0.035502
  0.043142
  0.045688
  0.040595
  0.038048
  0.040595
  0.048235
  0.045688
  0.035502
  0.040595
  0.045688
  0.043142
  0.038048
  0.043142
  0.043142
  0.035502
  0.043142
  0.045688
  0.043142
  0.035502
  0.040595
  0.048235
  0.045688
  0.038048
  0.043142
  0.053329
  0.053329
  0.048235
  0.053329
  0.048235
  0.048235
  0.053329
  0.058422
  0.050782
  0.058422
  0.066062
  0.063515
  0.058422
  0.066062
  0.058422
  0.055875
  0.063515
  0.068609
  0.068609
  0.071155
  0.076249
  0.073702
  0.083889
  0.083889
  0.088982
  0.086436
  0.096622
  0.099169
  0.091529
  0.086436
  0.091529
  0.106809
  0.101716
  0.096622
  0.099169
  0.111903
  0.109356
  0.109356
  0.116996
  0.106809
  0.109356
  0.111903
  0.119543
  0.124636
  0.119543
  0.124636
  0.127183
  0.132276
  0.127183
  0.124636
   0.13737
  0.142463
   0.13737
  0.132276
   0.13737
   0.14501
  0.150103
   0.14501
  0.147556
   0.15265
  0.147556
  0.147556
   0.14501
  0.150103
   0.15265
  0.147556
  0.155196
  0.157743
  0.165383
  0.165383
   0.16029
   0.15265
  0.157743
   0.16029
   0.16029
  0.157743
  0.157743
  0.157743
  0.165383
  0.157743
  0.150103
  0.162836
   0.13737
  0.134823
  0.139916
   0.14501
   0.13737
  0.129729
   0.13737
  0.139916
  0.132276
  0.132276
  0.132276
  0.132276
  0.132276
  0.134823
  0.129729
  0.096622
  0.099169
  0.106809
  0.104262
  0.094076
  0.104262
  0.094076
  0.083889
  0.083889
  0.088982
  0.086436
  0.076249
  0.068609
  0.076249
  0.068609
  0.066062
  0.058422
  0.068609
  0.048235
  0.045688
  0.053329
  0.053329
  0.048235
  0.050782
  0.048235
  0.043142
  0.035502
  0.045688
  0.035502
  0.025315
  0.030408
  0.038048
  0.035502
  0.030408
  0.027862
  0.038048
  0.030408
  0.017675
  0.022768
  0.027862
  0.022768
  0.017675
  0.020221
  0.027862
  0.020221
  0.017675
  0.020221
  0.027862
  0.020221
  0.007488
  0.002395
  0.010035
  0.022768
  0.012581
  0.010035
  0.012581
  0.017675
  0.012581
  0.007488
  0.010035
  0.017675
  0.004941
  0.002395
 -0.005246
  0.002395
  0.007488
  0.007488
  0.004941
 -0.002699
  0.002395
  0.007488
  0.007488
  0.004941
 -0.017979
 -0.007792
 -0.005246
 -0.005246
 -0.005246
 -0.010339
 -0.010339
 -0.002699
 -0.007792
 -0.012886
 -0.007792
 -0.000152
 -0.010339
 -0.010339
 -0.015432
 -0.007792
 -0.000152
 -0.010339
 -0.012886
 -0.007792
 -0.005246
 -0.002699
 -0.012886
 -0.007792
 -0.005246
  0.002395
 -0.007792
 -0.012886
 -0.010339
 -0.007792
 -0.002699
 -0.007792
 -0.015432
 -0.012886
 -0.005246
 -0.005246
 -0.005246
 -0.012886
 -0.010339
 -0.007792
 -0.000152
 -0.005246
 -0.012886
 -0.012886
 -0.005246
 -0.002699
 -0.005246
 -0.010339
 -0.012886
 -0.010339
 -0.005246
 -0.010339
 -0.012886
 -0.012886
 -0.010339
 -0.002699
 -0.010339
 -0.005246
 -0.012886
 -0.007792
 -0.002699
 -0.007792
 -0.012886
 -0.012886
 -0.005246
 -0.002699
 -0.007792
 -0.012886
 -0.010339
 -0.012886
 -0.002699
 -0.010339
 -0.005246
 -0.015432
 -0.007792
 -0.002699
 -0.005246
 -0.012886
 -0.007792
 -0.005246
 -0.007792
 -0.015432
 -0.007792
  0.002395
 -0.005246
 -0.012886
 -0.010339
 -0.000152
 -0.007792
 -0.010339
 -0.007792
 -0.000152
 -0.007792
 -0.012886
 -0.010339
 -0.005246
 -0.012886
 -0.005246
 -0.002699
 -0.010339
 -0.012886
 -0.007792
 -0.002699
 -0.002699
 -0.012886
 -0.012886
 -0.002699
 -0.005246
 -0.012886
 -0.005246
 -0.002699
 -0.007792
 -0.015432
 -0.010339
 -0.005246
 -0.005246
 -0.012886
 -0.012886
 -0.000152
 -0.005246
 -0.007792
 -0.005246
 -0.002699
 -0.012886
 -0.007792
 -0.002699
 -0.010339
 -0.012886
 -0.007792
 -0.005246
 -0.007792
 -0.012886
 -0.010339
 -0.002699
 -0.012886
 -0.015432
 -0.010339
 -0.002699
 -0.010339
 -0.012886
 -0.005246
 -0.002699
 -0.005246
 -0.012886
 -0.007792
 -0.010339
 -0.000152
 -0.010339
 -0.012886
 -0.005246
 -0.002699
 -0.010339
 -0.010339
 -0.005246
 -0.007792
 -0.005246
 -0.015432
 -0.007792
 -0.002699
 -0.007792
 -0.010339
 -0.010339
 -0.002699
 -0.007792
 -0.012886
 -0.007792
 -0.007792
 -0.010339
 -0.005246
 -0.002699
 -0.012886
 -0.012886
 -0.007792
 -0.007792
 -0.007792
 -0.007792
 -0.005246
 -0.002699
 -0.007792
 -0.012886
 -0.010339
 -0.005246
 -0.010339
 -0.012886
 -0.005246
 -0.005246
 -0.007792
 -0.010339
 -0.002699
 -0.007792
 -0.012886
 -0.005246
 -0.000152
 -0.010339
 -0.007792
 -0.002699
 -0.010339
 -0.012886
 -0.010339
 -0.002699
 -0.005246
 -0.012886
 -0.007792
 -0.005246
 -0.002699
 -0.012886
 -0.007792
 -0.002699
 -0.007792
 -0.012886
 -0.012886
 -0.000152
 -0.010339
 -0.012886
 -0.005246
 -0.002699
 -0.002699
 -0.010339
 -0.012886
 -0.007792
 -0.002699
 -0.010339
 -0.012886
 -0.012886
 -0.005246
 -0.002699
 -0.012886
 -0.007792
 -0.005246
 -0.012886
 -0.012886
 -0.007792
 -0.005246
 -0.005246
 -0.020526
 -0.010339
 -0.010339
 -0.002699
 -0.007792
 -0.012886
 -0.010339
 -0.010339
 -0.002699
 -0.007792
 -0.015432
 -0.012886
 -0.007792
 -0.002699
 -0.002699
 -0.015432
 -0.007792
 -0.005246
 -0.007792
 -0.012886
 -0.007792
 -0.005246
 -0.002699
 -0.005246
 -0.007792
 -0.002699
 -0.005246
 -0.012886
 -0.005246
 -0.002699
 -0.005246
 -0.012886
 -0.007792
 -0.000152
 -0.010339
 -0.010339
 -0.012886
 -0.007792
 -0.002699
 -0.010339
 -0.017979
 -0.005246
 -0.002699
 -0.005246
 -0.012886
 -0.007792
  0.002395
 -0.007792
 -0.012886
 -0.007792
 -0.002699
 -0.015432
 -0.007792
 -0.005246
 -0.010339
 -0.012886
 -0.007792
 -0.005246
 -0.007792
 -0.012886
 -0.012886
 -0.015432
 -0.002699
 -0.010339
 -0.012886
 -0.005246
  0.007488
  0.004941
  0.012581
  0.007488
  0.012581
  0.017675
  0.022768
  0.015128
  0.022768
  0.027862
  0.030408
  0.030408
  0.032955
  0.035502
  0.038048
  0.043142
  0.048235
  0.043142
  0.040595
  0.043142
  0.058422
  0.050782
  0.043142
  0.048235
  0.055875
  0.053329
  0.048235
  0.050782
  0.055875
  0.048235
  0.045688
  0.050782
  0.055875
  0.048235
  0.048235
  0.045688
  0.048235
  0.040595
  0.040595
  0.038048
  0.040595
  0.048235
  0.040595
  0.035502
  0.035502
  0.045688
  0.045688
  0.043142
  0.035502
  0.038048
  0.040595
  0.038048
  0.030408
  0.027862
  0.027862
  0.032955
  0.035502
  0.022768
  0.017675
  0.022768
  0.025315
  0.027862
  0.020221
  0.015128
  0.017675
  0.007488
  0.020221
  0.010035
  0.004941
  0.012581
  0.017675
  0.012581
  0.007488
 -0.000152
  0.010035
  0.010035
 -0.000152
 -0.000152
  0.002395
 -0.002699
 -0.005246
 -0.012886
 -0.010339
  0.002395
 -0.007792
 -0.010339
 -0.005246
 -0.005246
 -0.005246
 -0.012886
 -0.010339
 -0.005246
 -0.005246
 -0.012886
 -0.007792
 -0.002699
 -0.007792
 -0.012886
 -0.005246
 -0.007792
 -0.002699
 -0.005246
 -0.010339
 -0.007792
 -0.002699
 -0.002699
 -0.012886
 -0.012886
 -0.002699
 -0.005246
 -0.017979
 -0.007792
 -0.005246
 -0.007792
 -0.012886
 -0.007792
 -0.002699
 -0.005246
 -0.010339
 -0.010339
 -0.002699
 -0.005246
 -0.012886
 -0.007792
 -0.002699
 -0.005246
 -0.010339
 -0.005246
 -0.007792
 -0.012886
 -0.005246
 -0.002699
 -0.007792
 -0.012886
 -0.010339
 -0.005246
 -0.005246
 -0.012886
 -0.007792
 -0.002699
 -0.007792
 -0.015432
 -0.007792
 -0.007792
 -0.007792
 -0.010339
 -0.017979
 -0.007792
 -0.005246
 -0.005246
 -0.012886
 -0.012886
 -0.010339
 -0.020526
 -0.020526
 -0.043446
 -0.048539
 -0.053633
 -0.051086
 -0.068913
  -0.06382
 -0.058726
 -0.035806
 -0.023072
 -0.005246
  0.002395
  0.086436
  0.104262
  0.285078
  0.292718
  0.384399
  0.392039
  0.470987
   0.46844
  0.547388
  0.555028
  0.623789
  0.618695
   0.70019
  0.705283
  0.766404
  0.766404
  0.858085
  0.860632
  0.883552
  0.883552
  0.909019
  0.903925
  0.954859
  0.965046
  0.954859
  0.954859
  0.957406
  0.962499
  0.937032
  0.937032
  0.886098
  0.881005
  0.868272
  0.868272
  0.807151
  0.796964
   0.76131
   0.72311
  0.677269
  0.623789
  0.608508
  0.542294
  0.524467
  0.397133
  0.384399
  0.285078
  0.272344
   0.18321
   0.19085
  0.101716
  0.096622
  0.007488
  0.004941
 -0.068913
 -0.074006
 -0.198794
 -0.196248
 -0.285382
 -0.290476
 -0.262462
 -0.262462
 -0.219168
 -0.221715
 -0.155501
 -0.147861
 -0.091833
  -0.09438
 -0.028166
 -0.023072
  0.048235
  0.038048
  0.035502
  0.043142
  0.048235
  0.045688
  0.035502
  0.043142
  0.048235
  0.032955
  0.043142
  0.045688
  0.043142
  0.035502
  0.045688
  0.045688
  0.038048
  0.043142
  0.048235
  0.038048
  0.048235
  0.038048
  0.048235
  0.043142
  0.040595
  0.043142
  0.045688
  0.043142
  0.035502
  0.048235
  0.045688
  0.045688
  0.035502
  0.038048
  0.048235
  0.045688
  0.035502
  0.040595
  0.043142
  0.035502
  0.045688
  0.048235
  0.043142
  0.038048
  0.048235
  0.043142
  0.038048
  0.045688
  0.045688
  0.040595
  0.038048
  0.043142
  0.048235
  0.043142
  0.035502
  0.043142
  0.045688
  0.043142
  0.043142
  0.048235
  0.043142
  0.038048
  0.040595
  0.048235
  0.043142
  0.035502
  0.043142
  0.048235
  0.043142
  0.038048
  0.038048
  0.045688
  0.038048
  0.035502
  0.040595
  0.048235
  0.043142
  0.035502
  0.043142
  0.048235
  0.045688
  0.043142
  0.048235
  0.043142
  0.035502
  0.043142
  0.048235
  0.040595
  0.035502
  0.043142
  0.050782
  0.043142
  0.035502
  0.040595
  0.045688
  0.048235
  0.045688
  0.055875
  0.053329
  0.050782
  0.053329
  0.058422
  0.053329
  0.048235
  0.050782
  0.063515
  0.058422
  0.058422
  0.063515
  0.066062
  0.066062
  0.050782
  0.063515
  0.076249
  0.068609
  0.063515
  0.068609
  0.088982
  0.081342
  0.068609
  0.078795
  0.099169
  0.091529
  0.086436
  0.094076
  0.091529
  0.094076
  0.094076
  0.099169
  0.104262
  0.104262
  0.106809
  0.104262
  0.109356
  0.114449
  0.111903
  0.109356
  0.119543
  0.127183
  0.116996
  0.116996
  0.122089
  0.129729
  0.129729
  0.129729
  0.122089
  0.139916
   0.14501
  0.139916
  0.132276
  0.139916
  0.139916
   0.15265
  0.150103
  0.139916
   0.14501
   0.15265
  0.150103
  0.142463
   0.14501
  0.147556
   0.15265
   0.16029
   0.15265
   0.16029
  0.162836
  0.157743
  0.150103
  0.157743
  0.162836
  0.157743
   0.15265
  0.155196
  0.162836
  0.157743
   0.15265
  0.157743
   0.15265
  0.139916
   0.13737
  0.132276
  0.139916
   0.14501
   0.14501
   0.13737
  0.134823
  0.134823
  0.129729
  0.134823
  0.124636
  0.132276
  0.124636
  0.132276
  0.106809
  0.109356
  0.099169
  0.091529
  0.099169
  0.099169
  0.094076
  0.088982
  0.086436
  0.088982
  0.083889
  0.088982
  0.068609
  0.063515
  0.073702
  0.073702
  0.060969
  0.060969
  0.040595
  0.048235
  0.058422
  0.050782
  0.045688
  0.043142
  0.043142
  0.048235
  0.043142
  0.035502
  0.027862
  0.027862
  0.040595
  0.032955
  0.025315
  0.030408
  0.038048
  0.030408
  0.027862
  0.022768
  0.027862
  0.022768
  0.017675
  0.025315
  0.030408
  0.022768
  0.017675
  0.025315
  0.027862
  0.027862
  0.015128
  0.012581
  0.017675
  0.015128
  0.012581
  0.004941
  0.012581
  0.017675
  0.012581
  0.004941
  0.015128
  0.017675
  0.017675
  0.004941
 -0.005246
  0.002395
  0.007488
  0.004941
 -0.000152
  0.007488
  0.007488
  0.002395
 -0.002699
  0.002395
 -0.000152
 -0.002699
 -0.015432
 -0.007792
 -0.002699
 -0.002699
 -0.007792
 -0.015432
 -0.007792
 -0.010339
 -0.010339
 -0.010339
 -0.007792
 -0.002699
 -0.010339
 -0.012886
 -0.005246
 -0.005246
 -0.002699
 -0.005246
 -0.012886
 -0.007792
 -0.002699
 -0.002699
 -0.012886
 -0.005246
 -0.000152
 -0.005246
 -0.007792
 -0.012886
 -0.010339
 -0.002699
 -0.007792
 -0.012886
 -0.007792
 -0.000152
 -0.007792
 -0.010339
 -0.005246
 -0.005246
 -0.002699
 -0.015432
 -0.010339
 -0.010339
 -0.002699
 -0.010339
 -0.007792
 -0.002699
 -0.005246
 -0.012886
 -0.007792
 -0.002699
 -0.005246
 -0.012886
 -0.005246
 -0.002699
 -0.007792
 -0.012886
 -0.007792
 -0.002699
 -0.007792
 -0.015432
 -0.010339
 -0.005246
 -0.010339
 -0.010339
 -0.010339
 -0.002699
 -0.010339
 -0.012886
 -0.010339
 -0.002699
 -0.010339
 -0.015432
 -0.007792
 -0.005246
 -0.002699
 -0.007792
 -0.012886
 -0.012886
 -0.002699
 -0.007792
 -0.012886
 -0.010339
 -0.007792
 -0.002699
 -0.005246
 -0.012886
 -0.007792
 -0.005246
 -0.002699
 -0.007792
 -0.012886
 -0.007792
  0.002395
 -0.005246
 -0.017979
 -0.007792
 -0.002699
 -0.005246
 -0.012886
 -0.005246
 -0.002699
 -0.005246
 -0.015432
 -0.002699
 -0.010339
 -0.012886
 -0.007792
 -0.005246
 -0.010339
 -0.010339
 -0.007792
 -0.010339
 -0.000152
 -0.007792
 -0.012886
 -0.005246
 -0.002699
 -0.010339
 -0.012886
 -0.010339
 -0.002699
 -0.010339
 -0.007792
 -0.002699
 -0.010339
 -0.012886
 -0.007792
 -0.000152
 -0.007792
 -0.010339
 -0.007792
 -0.005246
 -0.007792
 -0.012886
 -0.007792
 -0.002699
 -0.002699
 -0.005246
 -0.012886
 -0.010339
 -0.002699
 -0.007792
 -0.012886
 -0.005246
 -0.002699
 -0.007792
 -0.012886
 -0.002699
 -0.002699
 -0.010339
 -0.012886
 -0.010339
 -0.002699
 -0.010339
 -0.012886
 -0.005246
 -0.005246
 -0.005246
 -0.012886
 -0.007792
 -0.005246
 -0.012886
 -0.007792
 -0.002699
 -0.010339
 -0.007792
 -0.007792
 -0.002699
 -0.012886
 -0.007792
 -0.007792
 -0.007792
 -0.012886
 -0.005246
 -0.005246
 -0.005246
 -0.012886
 -0.002699
 -0.012886
 -0.012886
 -0.007792
 -0.005246
 -0.005246
 -0.015432
 -0.007792
 -0.002699
 -0.005246
 -0.012886
 -0.007792
 -0.002699
 -0.005246
 -0.010339
 -0.007792
  0.004941
 -0.005246
 -0.015432
 -0.010339
 -0.002699
 -0.007792
 -0.010339
 -0.012886
 -0.002699
 -0.007792
 -0.012886
 -0.010339
 -0.002699
 -0.010339
 -0.007792
 -0.002699
 -0.010339
 -0.012886
 -0.010339
 -0.002699
 -0.005246
 -0.015432
 -0.010339
 -0.002699
 -0.005246
 -0.007792
 -0.010339
 -0.005246
 -0.005246
 -0.012886
 -0.015432
 -0.007792
 -0.005246
 -0.007792
 -0.010339
 -0.005246
 -0.010339
 -0.012886
 -0.007792
 -0.002699
 -0.005246
 -0.010339
 -0.005246
 -0.007792
 -0.002699
 -0.007792
 -0.012886
 -0.007792
 -0.002699
 -0.007792
 -0.010339
 -0.010339
 -0.002699
 -0.007792
 -0.012886
 -0.007792
 -0.002699
 -0.007792
 -0.012886
 -0.010339
 -0.000152
 -0.007792
 -0.012886
 -0.010339
 -0.002699
 -0.012886
 -0.010339
 -0.002699
 -0.007792
 -0.012886
 -0.005246
 -0.010339
 -0.002699
 -0.002699
 -0.012886
 -0.007792
 -0.002699
 -0.010339
 -0.012886
 -0.012886
 -0.007792
 -0.002699
 -0.005246
 -0.010339
 -0.012886
 -0.017979
 -0.007792
 -0.005246
 -0.007792
 -0.005246
 -0.010339
 -0.007792
  0.002395
 -0.005246
 -0.007792
 -0.012886
 -0.010339
 -0.000152
 -0.007792
 -0.012886
 -0.012886
 -0.012886
 -0.005246
 -0.005246
 -0.002699
 -0.012886
  0.004941
  0.007488
  0.010035
  0.007488
  0.004941
  0.012581
  0.025315
  0.022768
  0.017675
  0.025315
  0.038048
  0.030408
  0.027862
  0.030408
  0.040595
  0.048235
  0.043142
  0.038048
  0.038048
  0.048235
  0.055875
  0.045688
  0.053329
  0.050782
  0.058422
  0.053329
  0.045688
  0.050782
  0.053329
  0.053329
  0.045688
  0.048235
  0.048235
  0.058422
  0.050782
  0.030408
  0.043142
  0.048235
  0.043142
  0.035502
  0.035502
  0.043142
  0.048235
  0.040595
  0.038048
  0.038048
  0.048235
  0.040595
  0.038048
  0.043142
  0.045688
