5000
1000
 -0.262743
  -0.20482
 -0.252559
 -0.194636
   -0.2341
 -0.178087
 -0.215641
 -0.155809
 -0.195273
  -0.13735
 -0.176177
 -0.117618
 -0.155172
 -0.097886
 -0.148171
 -0.094703
 -0.106161
 -0.083246
 -0.069243
 -0.076881
 -0.049511
 -0.071152
 -0.038053
 -0.065424
 -0.033598
 -0.057149
 -0.013229
  -0.03678
 -0.010683
  -0.03869
 -0.001772
 -0.030415
  -0.01132
 -0.039327
 -0.010683
 -0.031052
 -0.011956
 -0.030415
 -0.020231
 -0.039963
 -0.030415
 -0.038053
 -0.038053
 -0.058422
 -0.059695
  -0.06797
 -0.067333
 -0.068606
 -0.069879
  -0.07879
 -0.077517
 -0.078154
 -0.080063
 -0.077517
  -0.06797
 -0.069243
 -0.069243
 -0.069243
  -0.06797
 -0.064151
 -0.060332
 -0.059695
 -0.059695
 -0.050784
 -0.058422
 -0.060968
 -0.060968
 -0.050147
 -0.050147
 -0.050784
 -0.059695
 -0.048238
 -0.050784
 -0.041236
 -0.039327
 -0.030415
 -0.039963
 -0.041873
 -0.039963
 -0.029779
 -0.037417
 -0.031052
 -0.029142
 -0.020231
 -0.020231
 -0.011956
 -0.020868
 -0.010047
 -0.020868
  -0.01132
 -0.010683
 -0.000499
 -0.010047
 -0.001772
 -0.003045
  0.007139
  0.000137
  0.009049
  0.009049
  0.014777
  0.012868
  0.016687
  0.023052
  0.020506
  0.025598
  0.027508
  0.035782
  0.029417
  0.037055
  0.030054
  0.037055
  0.037692
  0.048513
  0.047876
  0.056151
  0.047876
  0.058697
  0.056787
  0.065062
   0.05806
  0.067608
  0.066972
  0.075883
  0.075246
   0.08734
  0.076519
  0.084794
  0.086067
  0.095615
  0.096251
  0.094978
  0.086067
  0.096888
  0.096888
  0.103889
  0.104526
   0.11662
  0.115347
  0.115983
  0.115347
  0.126167
  0.126167
  0.124258
   0.13126
  0.134442
  0.133806
  0.135715
  0.143353
  0.145899
   0.14399
  0.152901
  0.155447
  0.153538
  0.161812
  0.163085
  0.163722
   0.17327
  0.171997
  0.173906
  0.173906
  0.183454
  0.181544
  0.183454
   0.18409
  0.193638
  0.192365
  0.201276
  0.193002
   0.20064
  0.201913
  0.203186
  0.193002
  0.201276
  0.202549
  0.212097
  0.202549
  0.210187
   0.20064
  0.212097
  0.201913
  0.212734
  0.202549
  0.212734
  0.205732
  0.200003
  0.198094
  0.195548
  0.200003
  0.185363
  0.191092
   0.18409
  0.193002
  0.171997
  0.182181
  0.164358
  0.172633
  0.163722
  0.173906
  0.154174
  0.161812
  0.144626
  0.153538
  0.134442
  0.143353
  0.125531
  0.135715
  0.123621
  0.133806
  0.115347
  0.124894
  0.105799
   0.11662
  0.094342
  0.105162
   0.08543
   0.08734
  0.075883
   0.08543
  0.068245
  0.077156
  0.055514
  0.065699
  0.057424
  0.067608
   0.04724
   0.04342
   0.04342
  0.034509
  0.026235
  0.019869
  0.027508
  0.021142
  0.016687
  0.009685
   0.01796
  0.008412
  0.009049
  0.000774
 -0.001136
 -0.001772
 -0.000499
 -0.008774
 -0.000499
 -0.001136
 -0.000499
 -0.010047
 -0.010683
 -0.011956
  -0.01132
 -0.010047
 -0.010047
 -0.010047
 -0.010683
 -0.010047
 -0.010047
 -0.010683
 -0.010683
  -0.00941
 -0.010683
 -0.011956
 -0.010047
 -0.008137
 -0.010047
 -0.010683
 -0.010683
  -0.00941
  -0.01132
  -0.01132
 -0.010047
 -0.010047
 -0.010683
  -0.01132
  -0.00941
 -0.003045
 -0.008774
  0.006503
 -0.030415
  -0.01132
 -0.046965
 -0.031052
  -0.06797
 -0.050784
 -0.086429
 -0.059695
 -0.098522
 -0.068606
 -0.116345
 -0.088975
 -0.129075
 -0.099159
 -0.145625
  -0.10807
 -0.147534
 -0.107434
 -0.154536
 -0.118254
  -0.16663
 -0.127802
  -0.16663
 -0.127802
 -0.176814
 -0.127166
 -0.176814
 -0.138623
 -0.176177
  -0.13544
 -0.185089
 -0.142442
 -0.162174
 -0.158991
 -0.161537
 -0.174268
 -0.155809
 -0.178087
  -0.15199
 -0.183179
 -0.149444
 -0.182542
 -0.158991
 -0.193363
 -0.167903
 -0.195273
 -0.165993
 -0.195909
  -0.16663
 -0.194636
 -0.176177
  -0.20673
 -0.185089
 -0.214368
    -0.194
 -0.214368
 -0.205457
 -0.225189
 -0.215005
  -0.23601
 -0.225825
 -0.233464
 -0.233464
 -0.253832
 -0.255105
 -0.262743
 -0.273564
 -0.273564
 -0.274837
 -0.285021
  -0.29266
  -0.29266
 -0.311755
 -0.314301
 -0.317484
 -0.321939
 -0.325758
 -0.335943
 -0.325758
 -0.337852
 -0.316211
 -0.339125
 -0.323212
 -0.348673
 -0.314301
 -0.339125
 -0.311755
 -0.339125
 -0.293296
 -0.321939
 -0.283112
 -0.319393
 -0.272928
 -0.311119
 -0.264653
 -0.301571
 -0.251923
 -0.280566
 -0.223916
 -0.262743
 -0.204184
 -0.252559
 -0.194636
 -0.234737
 -0.176177
 -0.215005
 -0.156445
 -0.195909
 -0.138623
 -0.174904
 -0.116981
 -0.155172
 -0.097886
 -0.148171
 -0.088975
 -0.114435
 -0.079427
 -0.071789
 -0.076244
 -0.052057
 -0.071152
 -0.037417
 -0.064787
 -0.034871
 -0.057149
 -0.013866
  -0.03678
 -0.011956
 -0.039327
 -0.002409
 -0.031052
 -0.010683
  -0.03869
 -0.010047
 -0.031688
  -0.01132
 -0.030415
 -0.020231
 -0.039327
 -0.031052
 -0.039327
  -0.03869
 -0.059695
 -0.059058
 -0.069243
 -0.068606
 -0.069243
 -0.070516
 -0.078154
 -0.077517
  -0.07879
 -0.079427
 -0.078154
  -0.06797
  -0.06797
 -0.069879
 -0.069879
 -0.069243
 -0.064151
 -0.059695
 -0.059695
 -0.058422
  -0.05142
 -0.058422
 -0.061605
 -0.059695
 -0.049511
 -0.048874
  -0.05142
 -0.059058
 -0.048874
 -0.049511
   -0.0406
   -0.0406
 -0.030415
 -0.039327
 -0.039963
 -0.041873
 -0.031052
 -0.038053
 -0.030415
 -0.030415
 -0.020868
 -0.020868
 -0.010683
 -0.020868
  -0.01132
 -0.020231
 -0.008774
 -0.010683
 -0.001772
 -0.010683
 -0.001772
 -0.001772
  0.007776
 -0.001136
  0.009685
  0.009049
  0.015414
  0.014141
  0.017323
  0.021779
  0.019869
  0.026235
  0.029417
  0.035146
  0.028781
  0.037692
  0.028144
  0.037055
  0.040238
  0.048513
  0.046603
  0.057424
  0.047876
  0.056151
  0.055514
  0.066972
  0.059333
  0.067608
  0.066335
  0.077156
  0.078429
  0.086067
  0.075246
   0.08543
   0.08734
  0.096251
  0.094978
  0.095615
  0.086704
  0.096251
  0.096251
  0.105799
  0.105799
  0.113437
  0.115983
   0.11662
  0.115983
  0.124258
  0.124258
  0.125531
  0.130623
  0.133806
  0.135079
  0.135715
   0.14208
  0.142717
   0.14399
  0.154174
  0.154174
  0.153538
  0.162449
  0.164358
  0.163085
  0.171997
  0.172633
  0.173906
  0.172633
  0.182817
  0.182817
  0.183454
  0.183454
  0.193638
  0.193002
  0.202549
  0.193002
  0.201913
  0.201913
  0.202549
  0.192365
  0.201913
  0.201276
   0.21337
  0.203186
  0.210824
  0.201913
  0.212734
  0.201276
  0.210824
  0.201276
  0.212097
  0.205095
  0.203186
  0.198094
  0.194911
  0.199367
  0.185363
  0.192365
   0.18409
  0.190456
  0.174543
  0.182817
  0.163722
   0.17136
  0.162449
  0.173906
  0.154174
  0.163085
  0.144626
  0.155447
  0.135079
  0.143353
  0.125531
  0.136988
  0.124894
  0.133806
  0.114074
  0.125531
  0.105162
  0.113437
  0.094342
  0.106435
  0.086704
   0.08543
  0.077792
  0.086067
  0.065699
  0.075883
  0.056787
  0.068245
  0.057424
  0.066972
  0.048513
  0.045967
  0.042147
  0.035146
  0.027508
  0.021779
  0.025598
  0.019869
   0.01796
  0.009049
  0.016687
  0.009049
  0.008412
 -0.000499
 -0.001136
 -0.000499
 -0.000499
 -0.010047
 -0.000499
 -0.000499
  0.000137
  -0.00941
 -0.010047
 -0.010683
 -0.010047
 -0.010683
 -0.010683
  -0.01132
  -0.00941
 -0.010683
 -0.010683
 -0.010683
  -0.00941
 -0.010683
 -0.010683
  -0.00941
 -0.010047
 -0.010683
 -0.010683
 -0.010047
 -0.010047
  -0.01132
  -0.00941
  -0.00941
 -0.010047
  -0.01132
  -0.01132
 -0.010047
  -0.00941
 -0.003682
 -0.010047
  0.007776
 -0.027233
 -0.010683
 -0.047601
 -0.031688
 -0.067333
 -0.050784
 -0.087065
 -0.059058
 -0.097886
 -0.069243
 -0.116981
 -0.088338
 -0.128439
 -0.100432
 -0.146898
 -0.107434
 -0.146261
 -0.109343
 -0.157718
 -0.116981
 -0.165993
 -0.128439
 -0.167266
 -0.127802
 -0.174904
 -0.127802
 -0.178087
 -0.138623
 -0.174268
 -0.136713
 -0.186998
  -0.13735
  -0.16663
 -0.155172
 -0.165357
 -0.171085
 -0.157718
 -0.176814
 -0.154536
 -0.181906
 -0.151353
 -0.181906
 -0.158991
 -0.194636
 -0.167266
 -0.194636
 -0.165993
 -0.195273
 -0.167266
 -0.194636
 -0.175541
  -0.20673
 -0.185089
 -0.213732
 -0.195273
 -0.214368
  -0.20673
 -0.223916
 -0.215005
   -0.2341
 -0.225189
 -0.235373
 -0.235373
 -0.251923
 -0.253832
 -0.264653
 -0.274837
 -0.273564
 -0.273564
 -0.285658
 -0.293933
 -0.293933
 -0.311119
 -0.311755
  -0.32003
 -0.321303
 -0.326395
  -0.33467
 -0.326395
 -0.337216
 -0.315574
 -0.337852
 -0.322576
   -0.3474
 -0.314301
 -0.339125
 -0.311755
 -0.339762
 -0.293296
 -0.323212
 -0.283112
  -0.32003
 -0.273564
 -0.311755
 -0.264016
 -0.300298
 -0.252559
 -0.282475
 -0.224552
 -0.262743
 -0.204184
 -0.254469
    -0.194
 -0.232827
 -0.176177
 -0.216278
 -0.156445
    -0.194
  -0.13544
 -0.176814
 -0.116345
 -0.155172
 -0.098522
 -0.148171
 -0.088338
   -0.1208
  -0.07879
 -0.076244
 -0.073062
 -0.053966
 -0.069243
   -0.0406
 -0.064787
 -0.034871
 -0.057149
 -0.014502
 -0.037417
  -0.01132
  -0.03869
 -0.001136
 -0.031688
 -0.010683
 -0.039327
 -0.010683
 -0.032325
  -0.01132
 -0.030415
 -0.020231
 -0.041236
 -0.029779
 -0.039327
 -0.038053
 -0.059695
 -0.059058
 -0.068606
 -0.068606
 -0.069879
 -0.068606
 -0.078154
  -0.07879
 -0.079427
 -0.077517
 -0.078154
 -0.069879
  -0.06797
 -0.067333
 -0.068606
 -0.069879
 -0.064787
 -0.057785
 -0.059695
 -0.057149
  -0.05142
 -0.057785
 -0.060968
 -0.060332
 -0.050784
 -0.050784
 -0.050147
 -0.057785
 -0.050147
 -0.050784
  -0.03869
 -0.039327
 -0.031688
 -0.039963
 -0.039327
 -0.039327
 -0.031688
 -0.039327
 -0.029142
 -0.029779
 -0.020231
 -0.018958
 -0.010683
 -0.020868
 -0.010683
 -0.019595
 -0.011956
  -0.01132
 -0.000499
 -0.010683
 -0.001136
 -0.001136
  0.009049
 -0.000499
  0.008412
  0.009049
  0.018596
  0.009685
  0.015414
  0.021779
  0.021779
  0.023689
  0.028144
  0.036419
  0.029417
  0.035146
  0.029417
  0.037692
  0.037692
  0.047876
  0.049786
  0.059333
   0.04724
  0.056787
  0.059333
  0.066335
  0.056151
  0.067608
  0.068881
  0.076519
  0.075246
  0.086067
  0.077156
  0.084794
   0.08543
  0.096888
  0.096251
  0.094342
  0.086067
  0.096888
  0.094978
  0.105162
  0.105799
  0.114074
  0.115347
  0.115347
  0.114074
  0.125531
  0.126167
  0.124258
  0.129987
  0.136352
  0.134442
  0.134442
   0.14208
   0.14399
   0.14399
  0.152265
  0.154174
  0.153538
  0.163085
  0.163722
  0.163085
  0.171997
  0.173906
   0.17327
  0.172633
  0.182817
  0.183454
  0.183454
  0.180908
  0.193638
  0.194275
  0.202549
  0.192365
  0.203186
  0.202549
  0.201276
  0.193002
  0.203822
  0.201913
  0.210824
  0.203186
  0.211461
   0.20064
  0.212734
  0.201276
  0.210187
  0.202549
   0.21337
  0.203822
  0.205095
  0.198094
  0.196184
  0.198094
  0.187273
  0.191092
   0.18409
  0.189819
  0.175179
  0.182817
  0.161812
  0.171997
  0.164358
   0.17327
  0.154174
  0.163722
  0.144626
  0.154174
  0.132533
   0.14399
  0.125531
  0.134442
  0.125531
  0.134442
  0.115347
  0.124258
  0.105162
  0.115983
  0.094342
  0.105162
  0.086704
   0.08734
  0.075246
  0.086067
  0.067608
  0.076519
  0.057424
  0.066335
  0.058697
  0.067608
   0.04724
  0.046603
  0.042784
  0.036419
  0.027508
  0.021142
  0.025598
  0.019869
  0.018596
  0.009685
  0.019233
  0.009049
  0.008412
  0.000774
 -0.001136
 -0.001772
 -0.000499
 -0.010047
  0.000774
 -0.001136
  0.000137
  -0.01132
 -0.010683
 -0.010683
 -0.010047
 -0.010683
  -0.01132
 -0.010683
 -0.010683
 -0.010683
 -0.010683
 -0.010047
 -0.010683
  -0.01132
 -0.010683
 -0.010047
 -0.010683
  -0.00941
  -0.00941
 -0.010683
 -0.010683
 -0.010683
 -0.008774
  -0.01132
 -0.013229
  -0.01132
 -0.010047
 -0.010683
 -0.010047
 -0.003045
 -0.008774
   0.00523
 -0.026596
 -0.010683
 -0.048238
 -0.032325
 -0.067333
 -0.048874
 -0.087702
 -0.060332
 -0.097886
 -0.068606
 -0.116981
 -0.087702
 -0.126529
 -0.100432
 -0.147534
  -0.10807
 -0.146261
  -0.10807
 -0.157082
 -0.118254
 -0.165357
 -0.126529
 -0.165993
 -0.127802
 -0.176814
 -0.127166
 -0.176814
 -0.137986
 -0.176177
 -0.136077
 -0.186362
 -0.138623
 -0.172995
 -0.150717
 -0.167266
 -0.169812
 -0.158991
 -0.176177
 -0.155172
 -0.180633
 -0.151353
 -0.182542
 -0.158355
 -0.193363
 -0.168539
 -0.194636
 -0.165993
    -0.194
 -0.167903
 -0.194636
 -0.175541
 -0.204184
 -0.184452
 -0.215641
 -0.195909
 -0.214368
  -0.20482
 -0.225825
 -0.215641
 -0.235373
 -0.225825
 -0.232827
   -0.2341
 -0.253196
 -0.254469
 -0.265289
 -0.273564
 -0.273564
 -0.274837
 -0.284385
  -0.29266
 -0.294569
 -0.312392
 -0.311755
  -0.32003
 -0.318757
 -0.328304
 -0.333397
 -0.326395
 -0.335943
 -0.318757
 -0.337852
 -0.323849
 -0.348673
 -0.314938
 -0.337852
 -0.312392
 -0.340398
 -0.293296
 -0.320666
 -0.282475
 -0.321939
 -0.273564
 -0.311119
  -0.26338
 -0.300934
 -0.252559
 -0.281839
 -0.223279
 -0.264653
  -0.20482
 -0.252559
 -0.194636
   -0.2341
 -0.175541
 -0.213732
 -0.156445
 -0.194636
 -0.136077
 -0.174904
 -0.118891
 -0.156445
 -0.097249
 -0.146261
 -0.090248
 -0.126529
 -0.074335
 -0.079427
 -0.071152
 -0.057785
 -0.067333
 -0.041236
 -0.063514
 -0.035507
 -0.056512
 -0.014502
  -0.03678
  -0.01132
  -0.03869
 -0.001772
 -0.030415
  -0.01132
 -0.039327
 -0.010683
 -0.030415
  -0.01132
 -0.029142
 -0.020868
   -0.0406
 -0.029142
  -0.03869
 -0.039327
 -0.059695
 -0.059695
  -0.06797
  -0.06797
 -0.070516
 -0.068606
 -0.077517
 -0.077517
 -0.080063
 -0.078154
 -0.078154
  -0.06797
 -0.069879
 -0.068606
  -0.06797
  -0.06797
 -0.067333
 -0.059058
 -0.059058
 -0.057785
  -0.05142
 -0.059695
 -0.060968
 -0.060332
 -0.048874
 -0.050147
 -0.049511
 -0.059695
 -0.050147
 -0.048874
 -0.039327
 -0.041236
 -0.031052
 -0.041236
   -0.0406
 -0.041236
 -0.030415
   -0.0406
 -0.031052
 -0.029142
 -0.019595
 -0.020231
 -0.010047
 -0.020868
 -0.010683
 -0.020868
  -0.01132
  -0.01132
 -0.000499
 -0.010683
 -0.003045
 -0.003045
  0.009049
 -0.000499
  0.006503
  0.008412
  0.018596
  0.010322
  0.018596
  0.019869
  0.022415
  0.024325
  0.027508
  0.036419
  0.030054
  0.035782
  0.030054
  0.037055
  0.038328
  0.047876
  0.048513
  0.056787
  0.047876
  0.057424
  0.057424
  0.065699
  0.056151
  0.066972
  0.067608
  0.077156
  0.077156
  0.084794
  0.075883
   0.08734
  0.087977
  0.094978
  0.094342
  0.094978
  0.086704
  0.096251
  0.096251
  0.105162
  0.103253
   0.11471
  0.115983
  0.115983
   0.11471
  0.125531
  0.125531
  0.125531
   0.12744
  0.135079
  0.134442
  0.134442
   0.14399
  0.145263
   0.14399
  0.152901
  0.153538
  0.155447
  0.163722
  0.163085
  0.163085
   0.17327
   0.17327
   0.17327
  0.174543
   0.18409
  0.182181
   0.18409
   0.18409
  0.194275
  0.193638
  0.202549
  0.193638
  0.201913
  0.201913
  0.202549
  0.193002
   0.20064
  0.200003
  0.212734
  0.202549
  0.210187
  0.201913
  0.212097
  0.201913
  0.210824
  0.201913
  0.212734
  0.201913
  0.207005
  0.195548
  0.198094
   0.19873
  0.186636
  0.189182
  0.184727
  0.189819
  0.173906
  0.182181
  0.166268
  0.172633
  0.163722
  0.174543
  0.154174
  0.162449
  0.143353
  0.153538
  0.135079
  0.144626
  0.124258
  0.133806
  0.125531
  0.134442
   0.11471
  0.124258
  0.105799
  0.114074
  0.095615
  0.107072
   0.08734
   0.08734
  0.076519
  0.086067
  0.066972
  0.076519
  0.056151
  0.065699
  0.056787
  0.068881
   0.04724
  0.047876
  0.040874
  0.038965
  0.026871
  0.021779
  0.024962
  0.019869
  0.017323
  0.008412
   0.01796
  0.010322
  0.008412
 -0.000499
 -0.000499
 -0.000499
 -0.000499
  -0.01132
  0.000137
 -0.000499
  0.000137
 -0.010683
  -0.00941
 -0.010683
 -0.010683
  -0.01132
 -0.010683
 -0.010683
 -0.010683
 -0.010683
 -0.010683
 -0.010047
 -0.010047
 -0.010683
 -0.010683
  -0.00941
 -0.010047
  -0.01132
 -0.010047
 -0.010683
  -0.00941
  -0.01132
 -0.010047
 -0.010683
  -0.00941
 -0.010683
 -0.010047
 -0.010047
 -0.010047
 -0.004955
 -0.010047
  0.006503
 -0.026596
 -0.012593
 -0.048874
 -0.030415
  -0.06797
 -0.050784
 -0.087702
 -0.059058
 -0.097249
 -0.069879
 -0.118254
 -0.087702
 -0.127802
 -0.099159
 -0.148171
 -0.108707
 -0.145625
 -0.109343
 -0.156445
 -0.118254
  -0.16472
 -0.127802
 -0.165993
 -0.127166
 -0.176814
 -0.127802
 -0.176814
 -0.137986
 -0.176814
 -0.137986
 -0.185089
  -0.13735
 -0.176177
 -0.143715
 -0.170449
 -0.165993
  -0.16281
 -0.173631
 -0.155172
 -0.178723
 -0.154536
 -0.180633
 -0.158355
 -0.193363
 -0.168539
 -0.194636
 -0.167903
 -0.194636
  -0.16663
 -0.194636
 -0.176177
  -0.20673
 -0.184452
 -0.214368
 -0.194636
 -0.215005
  -0.20482
 -0.224552
 -0.215641
 -0.235373
 -0.223916
 -0.232827
 -0.232827
 -0.255105
 -0.252559
 -0.264016
 -0.275474
 -0.275474
 -0.273564
 -0.283112
 -0.293933
 -0.293933
 -0.311119
 -0.311119
 -0.321939
 -0.317484
 -0.327668
 -0.331487
 -0.329577
 -0.335943
 -0.317484
 -0.335306
 -0.325758
 -0.346763
 -0.314938
 -0.338489
 -0.312392
 -0.341035
 -0.293933
  -0.32003
 -0.282475
 -0.321939
 -0.273564
 -0.309209
 -0.262107
 -0.302207
 -0.253196
 -0.281839
 -0.222006
 -0.262107
  -0.20673
 -0.253196
 -0.194636
 -0.232191
 -0.176814
 -0.217551
 -0.157082
 -0.194636
 -0.136077
 -0.176814
 -0.117618
 -0.155809
 -0.097249
 -0.148171
 -0.088338
 -0.127166
 -0.070516
 -0.086429
  -0.06606
 -0.061605
 -0.064787
 -0.043782
 -0.062878
  -0.03678
 -0.055239
 -0.015139
  -0.03678
 -0.011956
 -0.039327
 -0.003045
 -0.031052
  -0.01132
 -0.039327
 -0.010683
 -0.030415
 -0.010683
 -0.030415
 -0.020868
 -0.039963
 -0.028506
   -0.0406
 -0.037417
 -0.058422
 -0.059058
 -0.071152
 -0.069243
 -0.069243
 -0.069879
 -0.078154
 -0.077517
 -0.079427
  -0.07879
 -0.078154
  -0.06797
 -0.068606
 -0.069243
 -0.069243
  -0.06797
  -0.06797
 -0.059695
 -0.059058
 -0.059058
  -0.05142
 -0.057149
 -0.060968
 -0.059695
 -0.050784
 -0.049511
 -0.049511
 -0.059695
 -0.049511
 -0.049511
   -0.0406
 -0.041236
 -0.029779
 -0.039327
  -0.03869
   -0.0406
 -0.032325
  -0.03869
 -0.028506
 -0.027869
 -0.020231
 -0.021504
  -0.01132
 -0.020231
  -0.01132
 -0.020868
 -0.010047
 -0.010683
 -0.000499
 -0.010047
 -0.003682
 -0.000499
  0.009049
 -0.000499
  0.009049
  0.007139
  0.019869
  0.008412
  0.016687
  0.019233
  0.022415
  0.024325
  0.028144
  0.034509
  0.028781
  0.035782
  0.030054
  0.037692
  0.037692
   0.04724
  0.048513
  0.056787
  0.046603
  0.056787
  0.058697
  0.066335
  0.056787
  0.066972
  0.068245
  0.076519
  0.076519
  0.086067
  0.078429
  0.084794
  0.084794
  0.096251
  0.096251
  0.096888
   0.08543
  0.096251
  0.096888
  0.104526
  0.105162
  0.115347
   0.11471
  0.115983
   0.11471
  0.125531
  0.125531
  0.125531
  0.126167
  0.133806
  0.135715
  0.134442
  0.140807
   0.14399
  0.145263
  0.152265
  0.152265
  0.153538
  0.163085
  0.163085
  0.162449
   0.17327
  0.173906
  0.173906
   0.17327
  0.182181
  0.182817
  0.183454
  0.182181
  0.191729
  0.193638
  0.203186
  0.191729
   0.20064
  0.202549
  0.202549
  0.193002
  0.201276
  0.201276
  0.212734
  0.202549
  0.210187
  0.202549
  0.212734
  0.200003
  0.210187
  0.202549
  0.212734
  0.201276
  0.210824
  0.195548
   0.19873
  0.198094
  0.187909
  0.189819
  0.185363
  0.190456
   0.17327
  0.182181
  0.164995
  0.171997
  0.162449
  0.172633
  0.155447
  0.163722
   0.14399
  0.154174
  0.136352
   0.14399
  0.125531
  0.134442
  0.125531
  0.136352
  0.114074
  0.123621
  0.103889
  0.114074
  0.096251
  0.105799
   0.08543
  0.086067
  0.078429
  0.086067
  0.068245
  0.075883
  0.057424
  0.067608
  0.056151
  0.065699
   0.04724
  0.048513
  0.039601
  0.039601
  0.028781
  0.023689
  0.025598
  0.019869
  0.018596
  0.010322
  0.017323
  0.009049
  0.009049
  0.000137
 -0.000499
 -0.001136
 -0.001136
 -0.010047
 -0.000499
 -0.001136
 -0.000499
  -0.00941
 -0.010683
 -0.010683
 -0.010683
 -0.010047
 -0.010047
 -0.010047
  -0.01132
  -0.00941
 -0.008774
 -0.010047
 -0.010683
 -0.010683
  -0.00941
 -0.010683
 -0.010683
 -0.010047
 -0.010683
 -0.008774
  -0.00941
 -0.010683
 -0.010683
 -0.010047
 -0.010683
  -0.01132
 -0.010683
 -0.010683
  -0.01132
 -0.004318
 -0.008774
   0.00523
 -0.026596
  -0.01132
 -0.046328
 -0.031688
 -0.068606
 -0.050147
 -0.086429
 -0.059695
 -0.098522
  -0.06797
 -0.116345
 -0.088975
 -0.127802
 -0.098522
 -0.145625
  -0.10807
 -0.147534
  -0.10807
 -0.154536
 -0.116981
  -0.16663
 -0.127802
 -0.165993
 -0.127166
 -0.178087
 -0.127802
 -0.176177
 -0.137986
 -0.176177
  -0.13735
 -0.184452
 -0.136077
 -0.176177
  -0.13735
 -0.174268
 -0.161537
 -0.165993
 -0.171085
 -0.156445
  -0.17745
 -0.152626
 -0.181906
 -0.159628
 -0.191454
 -0.167903
 -0.195909
  -0.16663
  -0.19209
 -0.167266
 -0.195909
 -0.175541
 -0.204184
 -0.185725
 -0.215641
 -0.195273
 -0.213095
  -0.20482
 -0.225189
 -0.216278
 -0.234737
 -0.223916
 -0.232827
 -0.234737
 -0.253196
 -0.253196
 -0.262743
 -0.275474
 -0.274837
 -0.274837
 -0.283112
 -0.293296
 -0.293933
 -0.311755
 -0.313028
 -0.321939
 -0.313028
 -0.330214
 -0.330851
 -0.330851
  -0.33467
 -0.320666
 -0.335943
 -0.322576
 -0.346127
 -0.316211
 -0.338489
 -0.311119
 -0.339125
 -0.293933
 -0.321939
 -0.283112
 -0.320666
 -0.272928
 -0.313028
 -0.262743
 -0.300298
 -0.252559
 -0.281839
 -0.224552
  -0.26147
  -0.20482
 -0.251923
 -0.195909
   -0.2341
 -0.176177
 -0.216278
 -0.157718
 -0.196546
  -0.13544
 -0.175541
 -0.118254
 -0.155809
 -0.097249
 -0.146898
 -0.090248
 -0.127802
 -0.068606
 -0.092157
 -0.062241
 -0.064787
 -0.062241
 -0.045692
 -0.062241
  -0.03678
 -0.055239
 -0.016412
  -0.03678
 -0.011956
 -0.038053
 -0.003682
 -0.029779
 -0.010047
 -0.039327
 -0.011956
 -0.029779
  -0.00941
 -0.030415
 -0.020868
 -0.039327
 -0.030415
  -0.03869
  -0.03869
 -0.059695
 -0.058422
 -0.069879
 -0.069243
 -0.068606
 -0.069243
 -0.079427
 -0.076881
 -0.078154
 -0.080063
  -0.07879
  -0.06797
 -0.069879
 -0.069243
  -0.06797
  -0.06797
 -0.069879
 -0.059058
 -0.058422
 -0.059058
 -0.054603
 -0.057149
 -0.058422
 -0.059058
 -0.052693
 -0.049511
 -0.049511
 -0.059695
 -0.049511
 -0.048874
   -0.0406
   -0.0406
 -0.029779
 -0.038053
   -0.0406
 -0.041236
 -0.031052
 -0.037417
 -0.029142
 -0.031052
 -0.018958
 -0.020868
 -0.010683
 -0.021504
 -0.010683
 -0.020868
 -0.010683
 -0.011956
 -0.000499
 -0.010683
 -0.000499
 -0.003045
  0.009049
 -0.000499
  0.010322
  0.007776
  0.019233
  0.008412
  0.016687
  0.019233
  0.022415
  0.023689
  0.026871
  0.034509
  0.031963
  0.035782
  0.028144
  0.037692
  0.040238
   0.04724
   0.04724
   0.05806
  0.049149
  0.056151
  0.055514
  0.066335
  0.058697
  0.067608
  0.065062
  0.075883
  0.077156
  0.086704
  0.075883
   0.08543
  0.086067
  0.095615
  0.095615
  0.093705
  0.086067
  0.095615
  0.096251
  0.103889
  0.103889
   0.11662
  0.115347
  0.115983
  0.114074
  0.126167
  0.125531
  0.126167
  0.125531
  0.133806
  0.136352
  0.136352
   0.14208
  0.142717
   0.14208
  0.154174
  0.152901
  0.152265
  0.163085
  0.163085
  0.163085
  0.171997
  0.174543
   0.17327
  0.172633
  0.182181
  0.183454
  0.183454
  0.182817
  0.193002
  0.194911
  0.202549
  0.191729
  0.201276
  0.203186
  0.202549
  0.191092
  0.201913
  0.202549
  0.211461
  0.202549
  0.211461
  0.202549
  0.211461
  0.199367
  0.212097
  0.203186
  0.212734
  0.201913
  0.211461
  0.193638
  0.198094
  0.196184
  0.188546
  0.190456
  0.183454
  0.190456
  0.176452
  0.182181
  0.164995
  0.171997
  0.164358
  0.175816
  0.154174
  0.161812
   0.14399
  0.154174
  0.134442
   0.14399
  0.124258
  0.135715
  0.124894
  0.133806
  0.114074
  0.123621
  0.105799
  0.113437
  0.096251
  0.104526
  0.087977
   0.08734
  0.076519
  0.084794
  0.065062
  0.077156
  0.056787
  0.066335
  0.055514
  0.067608
  0.048513
  0.047876
  0.037055
  0.044057
  0.028781
  0.023052
  0.024325
  0.020506
  0.018596
  0.010958
  0.017323
  0.009049
  0.009049
  0.000774
 -0.000499
 -0.000499
 -0.001772
 -0.010047
 -0.000499
 -0.000499
  0.000137
 -0.010047
 -0.010683
 -0.010683
  -0.00941
 -0.008774
 -0.010683
 -0.010683
  -0.00941
 -0.010047
 -0.010683
  -0.01132
  -0.00941
 -0.010047
 -0.010683
 -0.010047
 -0.010047
  -0.00941
  -0.01132
 -0.010047
 -0.010683
 -0.010683
 -0.010683
 -0.010047
 -0.010683
 -0.010683
  -0.01132
 -0.010047
 -0.010047
 -0.004955
 -0.010047
  0.005866
 -0.024687
 -0.013229
 -0.046328
 -0.032325
 -0.066697
 -0.049511
 -0.088338
 -0.060332
 -0.095976
 -0.069879
 -0.118254
 -0.089611
 -0.126529
 -0.097886
 -0.148171
  -0.10807
 -0.144988
  -0.10807
 -0.157082
 -0.118254
  -0.16472
 -0.127166
 -0.167266
 -0.125893
 -0.175541
 -0.127802
  -0.17745
 -0.137986
 -0.174904
  -0.13544
 -0.185725
 -0.137986
 -0.175541
 -0.134804
 -0.181906
 -0.158991
 -0.167903
 -0.168539
 -0.158991
  -0.17745
 -0.153899
 -0.179996
 -0.160901
 -0.190181
 -0.167903
 -0.195273
 -0.169176
 -0.193363
  -0.16663
 -0.195273
 -0.178087
  -0.20482
 -0.185089
 -0.215005
 -0.197182
 -0.215005
 -0.204184
 -0.225825
 -0.216278
   -0.2341
 -0.223916
 -0.235373
   -0.2341
 -0.253196
 -0.253832
 -0.264653
 -0.273564
 -0.273564
 -0.275474
 -0.284385
  -0.29266
 -0.294569
 -0.311755
 -0.311755
 -0.321303
 -0.312392
 -0.330851
 -0.327668
 -0.330851
 -0.334033
 -0.321939
 -0.335306
 -0.323849
 -0.346763
 -0.318757
 -0.336579
 -0.313028
 -0.339762
 -0.294569
 -0.319393
 -0.285021
 -0.321939
 -0.273564
 -0.309846
  -0.26338
 -0.302207
 -0.253196
 -0.281202
 -0.223916
 -0.262743
 -0.204184
 -0.252559
 -0.195273
 -0.234737
 -0.176177
 -0.215641
 -0.157718
 -0.194636
  -0.13735
 -0.175541
 -0.118254
 -0.155172
 -0.097249
 -0.147534
 -0.090248
 -0.127802
 -0.068606
 -0.097886
 -0.057785
 -0.070516
 -0.059058
 -0.047601
 -0.059695
 -0.037417
 -0.053966
 -0.016412
 -0.035507
  -0.01132
 -0.039327
 -0.004318
 -0.029779
  -0.01132
 -0.037417
  -0.00941
 -0.031688
 -0.011956
 -0.030415
 -0.020231
 -0.039327
 -0.031052
   -0.0406
 -0.039327
 -0.058422
 -0.059058
 -0.069879
 -0.070516
 -0.068606
  -0.06797
  -0.07879
 -0.078154
  -0.07879
 -0.078154
  -0.07879
  -0.06797
 -0.067333
 -0.069243
 -0.069879
 -0.069243
 -0.069243
 -0.059058
 -0.058422
 -0.059695
 -0.055239
 -0.056512
 -0.060968
 -0.060968
 -0.052057
 -0.050784
 -0.050147
 -0.059058
 -0.050784
 -0.050147
  -0.03869
 -0.041236
 -0.031688
 -0.041236
 -0.039327
 -0.039963
 -0.031052
  -0.03869
 -0.029142
 -0.028506
 -0.020231
 -0.020868
 -0.008774
 -0.020231
 -0.010683
 -0.021504
 -0.008774
 -0.010047
 -0.001772
 -0.010047
 -0.000499
 -0.002409
  0.007139
 -0.000499
  0.008412
  0.009049
   0.01796
  0.008412
  0.017323
  0.019233
  0.025598
  0.020506
  0.026235
  0.035146
  0.030054
  0.034509
  0.029417
  0.038328
  0.038328
   0.04724
   0.04724
   0.05806
  0.049149
  0.055514
  0.055514
  0.066335
   0.05806
  0.067608
  0.065699
  0.077156
  0.077792
  0.086067
  0.075246
  0.086067
  0.086067
  0.095615
  0.094342
  0.095615
  0.086704
  0.096251
  0.095615
  0.105799
  0.106435
  0.115983
  0.114074
  0.115347
   0.11662
  0.124894
  0.124894
  0.125531
  0.125531
  0.135079
  0.134442
  0.135079
  0.141444
  0.142717
  0.142717
  0.152265
  0.154174
  0.152901
  0.162449
  0.164358
  0.164358
   0.17327
  0.171997
   0.17327
  0.174543
  0.182817
  0.183454
  0.183454
  0.184727
  0.193002
  0.193002
  0.203186
  0.193638
  0.202549
   0.20064
  0.201913
  0.193638
  0.201913
  0.201913
  0.211461
  0.202549
  0.210824
  0.200003
  0.212097
  0.201913
  0.210824
   0.20064
  0.212097
  0.201913
  0.210187
  0.192365
   0.20064
  0.196184
  0.190456
  0.189182
  0.185363
  0.189182
  0.175816
  0.182181
  0.164358
  0.171997
  0.163722
  0.174543
  0.154811
  0.161812
  0.145263
  0.152901
  0.133806
  0.143353
  0.126804
  0.135715
  0.124258
  0.133806
  0.115347
  0.123621
  0.105799
  0.115347
  0.095615
  0.105162
   0.08734
   0.08734
  0.076519
   0.08543
  0.067608
  0.077156
  0.057424
  0.066335
  0.056787
  0.068245
  0.047876
   0.04724
  0.038328
  0.047876
  0.027508
  0.023689
  0.023052
  0.022415
   0.01796
  0.008412
  0.016687
  0.010958
  0.009049
 -0.001136
 -0.000499
  0.000774
 -0.001136
 -0.010683
  0.000137
  0.000774
  0.000137
 -0.011956
 -0.010683
 -0.010683
 -0.010683
 -0.010683
 -0.008774
 -0.010047
 -0.010683
 -0.010683
 -0.008774
 -0.010683
 -0.010683
 -0.010047
 -0.010047
 -0.010683
 -0.011956
 -0.010047
 -0.010683
 -0.010683
  -0.01132
 -0.010047
 -0.010047
  -0.01132
 -0.010683
  -0.00941
 -0.010683
 -0.010683
 -0.010047
 -0.004318
 -0.008774
   0.00332
 -0.024687
 -0.011956
 -0.046328
 -0.032961
  -0.06797
 -0.050784
 -0.087065
 -0.061605
 -0.096613
 -0.069879
 -0.117618
 -0.088338
 -0.125893
 -0.097886
 -0.148171
 -0.107434
 -0.145625
 -0.108707
 -0.157718
 -0.116345
 -0.165357
 -0.127166
 -0.167266
 -0.128439
 -0.175541
 -0.127802
 -0.176177
 -0.139259
 -0.174904
  -0.13735
 -0.185089
  -0.13735
 -0.176177
  -0.13544
 -0.183179
 -0.151353
 -0.171085
 -0.167266
 -0.161537
 -0.173631
 -0.155809
  -0.17936
 -0.160901
 -0.189544
 -0.169176
    -0.194
 -0.165993
    -0.194
 -0.169176
 -0.195909
 -0.176177
 -0.205457
 -0.186998
 -0.215005
 -0.194636
 -0.213732
 -0.206094
 -0.225825
 -0.214368
   -0.2341
 -0.225825
   -0.2341
   -0.2341
 -0.253196
 -0.253196
 -0.265289
 -0.273564
 -0.274837
 -0.274837
 -0.284385
  -0.29075
  -0.29266
 -0.311755
 -0.309846
 -0.320666
 -0.311755
  -0.33276
 -0.325122
  -0.33276
 -0.333397
 -0.323849
  -0.33276
 -0.325758
 -0.346763
 -0.317484
 -0.337216
 -0.314301
 -0.339762
 -0.293933
 -0.321303
 -0.285658
 -0.321939
 -0.273564
 -0.309846
 -0.264653
 -0.300934
 -0.252559
 -0.280566
 -0.225189
 -0.262743
 -0.204184
 -0.252559
 -0.194636
 -0.234737
  -0.17745
 -0.215641
 -0.158355
 -0.195909
 -0.137986
 -0.174268
 -0.118891
 -0.156445
 -0.096613
 -0.146261
 -0.089611
 -0.127166
 -0.068606
 -0.098522
  -0.05142
 -0.073698
 -0.057785
 -0.052057
 -0.056512
 -0.039327
 -0.054603
 -0.017048
 -0.033598
 -0.013229
 -0.039963
 -0.004318
 -0.029142
  -0.01132
 -0.039963
 -0.011956
 -0.030415
 -0.011956
 -0.029142
 -0.020231
 -0.039327
 -0.030415
 -0.038053
  -0.03869
 -0.059695
 -0.059058
  -0.06797
 -0.069243
 -0.069243
 -0.068606
  -0.07879
 -0.079427
 -0.077517
 -0.077517
 -0.078154
 -0.069879
 -0.069243
  -0.06797
 -0.069879
 -0.069879
 -0.068606
 -0.057149
 -0.059058
 -0.059695
  -0.05333
 -0.055876
 -0.061605
 -0.060332
 -0.052693
  -0.05142
 -0.049511
 -0.057785
 -0.050147
  -0.05142
  -0.03869
 -0.039327
 -0.030415
 -0.039327
  -0.03869
 -0.039327
 -0.031052
 -0.039327
 -0.028506
 -0.029142
 -0.020868
 -0.018958
 -0.010683
 -0.022141
  -0.01132
 -0.020231
 -0.010047
  -0.01132
 -0.001136
 -0.010047
 -0.000499
 -0.003045
  0.008412
 -0.000499
  0.009049
  0.008412
   0.01796
  0.009049
  0.016687
  0.016687
  0.026235
  0.021779
  0.026871
  0.033236
  0.031327
  0.035146
  0.028781
  0.035782
  0.038965
  0.047876
   0.04724
  0.056787
  0.049149
  0.057424
  0.055514
  0.066972
  0.057424
  0.067608
  0.066335
  0.076519
  0.076519
  0.086067
  0.077156
   0.08543
  0.086067
  0.096888
  0.095615
  0.097524
   0.08543
  0.096251
  0.096251
  0.105162
  0.106435
   0.11662
   0.11471
   0.11471
  0.115983
  0.124894
  0.123621
  0.125531
  0.126167
  0.135079
  0.134442
  0.134442
  0.140807
   0.14399
   0.14399
  0.152265
  0.154174
  0.154811
  0.161812
  0.163085
  0.163085
   0.17327
   0.17327
  0.172633
   0.17327
  0.183454
  0.183454
  0.183454
  0.182181
  0.193638
  0.194275
  0.201913
  0.191092
  0.202549
  0.202549
  0.201913
  0.192365
  0.202549
  0.203186
  0.212097
   0.20064
  0.210824
  0.202549
  0.211461
  0.201276
  0.210824
  0.202549
  0.212097
  0.201913
  0.210824
  0.193638
   0.20064
  0.194275
  0.192365
  0.189182
  0.185363
  0.188546
  0.175816
  0.180908
  0.166268
  0.171997
  0.161812
   0.17327
   0.15672
  0.163722
  0.143353
  0.152901
  0.135079
   0.14399
  0.124258
  0.135079
  0.126167
  0.133806
  0.113437
  0.125531
  0.106435
  0.114074
  0.094978
  0.105799
  0.087977
  0.086067
  0.076519
  0.086067
  0.066972
  0.075883
  0.057424
  0.066972
  0.055514
  0.066335
  0.047876
  0.049149
  0.037692
  0.047876
  0.029417
  0.023689
  0.022415
  0.022415
  0.019869
  0.010958
  0.015414
  0.009685
  0.009685
  0.000774
 -0.001772
 -0.000499
 -0.000499
 -0.010683
 -0.001136
  0.000774
  0.000137
  -0.01132
 -0.010683
  -0.00941
  -0.01132
  -0.01132
 -0.010683
  -0.00941
 -0.010683
  -0.01132
 -0.010047
 -0.008774
 -0.010683
 -0.010683
 -0.010683
 -0.008774
 -0.010047
 -0.010683
 -0.010047
 -0.010683
 -0.011956
 -0.010683
 -0.010047
 -0.010683
 -0.010683
 -0.010683
 -0.010047
 -0.010683
  -0.01132
 -0.004955
 -0.008137
   0.00332
  -0.02405
 -0.013229
 -0.045055
 -0.031688
 -0.067333
 -0.050147
 -0.087065
 -0.059695
 -0.097886
 -0.069243
 -0.115072
 -0.089611
 -0.127166
 -0.097886
 -0.145625
 -0.108707
 -0.146898
 -0.106797
 -0.156445
 -0.117618
  -0.16663
 -0.127166
 -0.165993
 -0.128439
 -0.176177
 -0.127166
 -0.176177
 -0.138623
 -0.176177
  -0.13735
 -0.186362
 -0.137986
 -0.175541
  -0.13544
 -0.183815
 -0.148171
 -0.176177
 -0.162174
  -0.16472
 -0.172358
 -0.157082
 -0.176814
 -0.160264
 -0.190181
 -0.168539
 -0.193363
 -0.167266
 -0.195273
 -0.167903
    -0.194
 -0.176177
  -0.20673
 -0.185089
 -0.213732
 -0.194636
 -0.215005
 -0.203547
 -0.224552
 -0.215641
 -0.235373
 -0.224552
   -0.2341
   -0.2341
 -0.255105
 -0.253196
  -0.26338
 -0.274201
 -0.275474
 -0.272928
 -0.283112
 -0.293933
 -0.293296
 -0.311119
 -0.311119
 -0.323212
 -0.311755
 -0.332124
 -0.324485
 -0.335306
 -0.330214
 -0.324485
 -0.334033
 -0.326395
 -0.344854
 -0.319393
 -0.336579
 -0.312392
 -0.339125
 -0.297115
 -0.320666
 -0.283112
 -0.320666
 -0.275474
 -0.310482
  -0.26338
 -0.300934
 -0.253196
 -0.280566
 -0.224552
 -0.264016
 -0.204184
 -0.253196
 -0.194636
   -0.2341
 -0.176177
 -0.215005
 -0.158355
 -0.195273
 -0.136077
 -0.175541
 -0.117618
 -0.155809
 -0.097249
 -0.145625
 -0.088975
 -0.127802
 -0.069243
 -0.097249
 -0.050147
 -0.081973
 -0.052693
 -0.055876
 -0.055876
 -0.042509
 -0.052693
 -0.020231
 -0.034234
 -0.013229
  -0.03678
 -0.003682
 -0.030415
  -0.01132
 -0.038053
 -0.011956
 -0.031052
  -0.01132
 -0.030415
 -0.019595
 -0.039327
 -0.029779
 -0.039327
  -0.03869
 -0.059695
 -0.060968
 -0.069243
 -0.066697
 -0.069243
 -0.069879
 -0.077517
 -0.076881
 -0.077517
  -0.07879
 -0.078154
  -0.06797
 -0.069243
 -0.069879
 -0.068606
 -0.067333
 -0.069243
 -0.060968
 -0.059695
 -0.058422
 -0.057149
 -0.055876
 -0.059058
 -0.059695
 -0.052693
 -0.050784
 -0.047601
 -0.058422
 -0.050147
 -0.049511
 -0.039327
   -0.0406
 -0.029142
 -0.039327
   -0.0406
 -0.041236
 -0.030415
  -0.03869
 -0.029142
 -0.031052
 -0.020231
 -0.018322
  -0.01132
 -0.022777
 -0.010047
 -0.019595
 -0.010683
 -0.010683
 -0.000499
 -0.010683
 -0.002409
 -0.003045
  0.007776
  0.000774
  0.009049
  0.008412
  0.018596
  0.009049
  0.016687
  0.016687
  0.026235
  0.021142
  0.026871
    0.0326
  0.031327
  0.034509
  0.029417
  0.036419
  0.040238
   0.04724
  0.047876
   0.05806
  0.049786
  0.056787
  0.055514
  0.067608
  0.057424
  0.066972
  0.066335
  0.077792
  0.077156
  0.086704
  0.075246
  0.086067
  0.086704
  0.096251
  0.094342
  0.096251
   0.08734
  0.095615
  0.094978
  0.105162
  0.105799
   0.11471
  0.115347
  0.115347
   0.11662
  0.125531
  0.124258
  0.124894
   0.12744
  0.135715
  0.133806
  0.134442
  0.139534
  0.142717
  0.144626
  0.151628
  0.153538
  0.152901
  0.161812
  0.164358
  0.163085
  0.171997
  0.175179
  0.173906
  0.171997
  0.182181
  0.182817
  0.184727
  0.183454
  0.193002
  0.193638
  0.202549
  0.193002
   0.20064
  0.202549
  0.202549
  0.194275
  0.202549
  0.201913
  0.212097
  0.203822
  0.212097
  0.200003
  0.212734
  0.203186
  0.210824
  0.201913
  0.212097
  0.202549
  0.211461
  0.190456
  0.202549
  0.193638
  0.194911
  0.186636
  0.186636
  0.189819
  0.176452
  0.179635
  0.165631
  0.172633
  0.164995
  0.171997
  0.155447
  0.163085
  0.144626
  0.153538
  0.136352
  0.144626
  0.125531
  0.134442
  0.126167
  0.133806
  0.113437
  0.123621
  0.105162
  0.114074
  0.095615
  0.106435
   0.08734
  0.086067
  0.077156
  0.086704
  0.068881
  0.075246
   0.05806
  0.067608
  0.055514
  0.066335
  0.049149
   0.04724
  0.037055
  0.046603
  0.029417
  0.025598
  0.021779
  0.023689
  0.019233
  0.010958
  0.015414
  0.009685
  0.009685
 -0.000499
 -0.002409
 -0.001136
 -0.000499
 -0.010683
 -0.001136
 -0.000499
  0.000137
 -0.010047
  -0.01132
 -0.010047
 -0.010047
 -0.010047
  -0.01132
 -0.010047
 -0.010047
 -0.010047
  -0.01132
 -0.008774
 -0.010683
 -0.010047
 -0.010683
 -0.010047
 -0.010683
 -0.010047
  -0.00941
 -0.010683
  -0.01132
 -0.010683
 -0.010683
  -0.01132
  -0.01132
 -0.010683
  -0.00941
 -0.010047
 -0.010683
 -0.006228
 -0.006228
  0.003957
  -0.02405
 -0.013229
 -0.045692
 -0.031688
 -0.067333
 -0.050147
 -0.086429
 -0.060968
 -0.096613
 -0.069879
 -0.117618
 -0.089611
 -0.127802
 -0.098522
 -0.145625
 -0.106797
 -0.147534
  -0.10807
 -0.157082
 -0.120164
  -0.16472
 -0.127166
 -0.165993
 -0.129075
 -0.176814
 -0.127166
 -0.176177
 -0.138623
 -0.174268
 -0.136077
 -0.186362
 -0.138623
 -0.176177
 -0.136077
 -0.185089
 -0.146261
 -0.181269
 -0.158355
 -0.167903
 -0.169812
 -0.158355
  -0.17745
  -0.16281
 -0.189544
 -0.168539
 -0.194636
 -0.168539
 -0.194636
  -0.16663
 -0.193363
 -0.176177
 -0.205457
 -0.184452
 -0.214368
 -0.194636
 -0.215005
 -0.204184
 -0.224552
 -0.215641
 -0.233464
 -0.224552
 -0.232827
 -0.234737
 -0.255105
 -0.254469
  -0.26338
 -0.273564
 -0.274837
 -0.274201
 -0.282475
 -0.293933
  -0.29266
 -0.311119
 -0.311119
 -0.323849
 -0.311755
 -0.330851
 -0.323212
 -0.337852
 -0.327668
 -0.327668
 -0.331487
 -0.326395
 -0.344854
  -0.32003
 -0.335306
 -0.314301
 -0.339762
 -0.297115
  -0.32003
 -0.284385
 -0.321939
 -0.274837
 -0.309846
  -0.26338
 -0.302207
 -0.253196
 -0.281202
 -0.223279
  -0.26338
 -0.205457
 -0.251286
 -0.195273
   -0.2341
 -0.176814
 -0.214368
 -0.157718
 -0.194636
  -0.13735
 -0.174904
 -0.118891
 -0.155809
 -0.096613
 -0.146898
 -0.090248
 -0.127802
 -0.069243
 -0.097249
 -0.052057
 -0.088338
 -0.046328
 -0.060332
 -0.052057
 -0.045692
  -0.05142
 -0.023414
 -0.033598
 -0.013229
 -0.037417
 -0.004318
 -0.028506
 -0.012593
  -0.03678
  -0.01132
 -0.031688
 -0.010047
 -0.029142
 -0.019595
 -0.041236
 -0.029779
  -0.03869
  -0.03869
 -0.059058
 -0.058422
 -0.069879
 -0.069879
 -0.069243
 -0.067333
 -0.077517
 -0.080063
 -0.079427
 -0.077517
 -0.078154
 -0.069879
  -0.06797
  -0.06797
 -0.067333
 -0.070516
 -0.068606
 -0.059695
 -0.059058
 -0.059058
 -0.055876
 -0.055876
 -0.059695
 -0.059058
 -0.052057
 -0.050784
 -0.050147
 -0.057785
 -0.050784
 -0.050147
 -0.041236
 -0.039327
 -0.031052
   -0.0406
 -0.039963
 -0.039327
 -0.031688
 -0.038053
 -0.029142
 -0.029779
 -0.020868
 -0.019595
  -0.00941
 -0.021504
  -0.01132
 -0.018958
 -0.010683
 -0.011956
 -0.000499
 -0.010047
 -0.002409
 -0.000499
  0.009049
  0.000774
  0.007776
  0.008412
  0.019233
  0.007139
   0.01796
   0.01796
  0.028144
  0.018596
  0.027508
  0.033236
  0.031963
  0.033873
  0.031327
  0.038328
  0.039601
  0.045967
  0.047876
   0.05806
  0.048513
  0.056151
  0.057424
  0.067608
  0.056151
  0.067608
  0.067608
  0.076519
  0.075246
  0.086067
  0.075883
   0.08543
  0.086067
  0.096251
  0.095615
  0.093705
  0.086704
  0.096251
  0.095615
  0.105162
  0.105162
  0.115347
  0.114074
  0.115983
  0.115347
  0.123621
  0.125531
  0.126167
  0.125531
  0.133169
  0.135715
  0.136352
  0.138261
  0.142717
  0.143353
  0.152265
  0.154174
  0.152265
  0.161812
  0.164995
  0.163085
  0.172633
  0.172633
  0.172633
  0.175816
  0.183454
  0.182181
  0.182181
  0.183454
  0.194911
  0.194275
  0.201913
  0.193002
  0.203186
  0.202549
  0.201913
  0.193002
  0.203822
  0.201913
  0.210824
  0.201913
  0.212734
  0.201913
  0.211461
  0.201913
  0.212097
  0.201913
  0.211461
  0.201913
  0.210824
  0.193002
  0.202549
  0.190456
  0.198094
  0.187273
  0.187273
  0.188546
  0.177725
  0.180271
  0.168177
   0.17136
  0.163085
  0.172633
  0.155447
  0.164358
  0.144626
  0.152265
  0.133806
  0.144626
  0.124894
  0.134442
  0.123621
  0.133806
   0.11471
  0.123621
  0.105162
  0.115347
  0.096251
  0.105799
  0.086067
   0.08543
  0.077156
  0.086067
  0.066972
  0.075883
  0.056151
  0.066335
  0.057424
  0.067608
   0.04724
   0.04724
  0.038328
   0.04724
  0.027508
  0.028144
  0.020506
  0.022415
  0.019233
  0.012868
  0.014141
  0.011595
  0.008412
 -0.000499
 -0.000499
  0.000137
 -0.001136
  -0.01132
 -0.000499
 -0.000499
 -0.000499
 -0.010683
 -0.010047
  -0.00941
 -0.010047
  -0.01132
 -0.010683
  -0.01132
 -0.012593
 -0.010683
 -0.008774
 -0.010047
 -0.010683
 -0.010047
 -0.010047
  -0.01132
  -0.01132
 -0.010047
 -0.010047
  -0.01132
 -0.010683
  -0.00941
 -0.010047
  -0.01132
 -0.008774
  -0.00941
 -0.010683
 -0.010683
  -0.00941
 -0.005591
 -0.008774
  0.002047
 -0.020868
 -0.015139
 -0.044419
 -0.031052
 -0.065424
 -0.052693
 -0.087065
 -0.059695
 -0.096613
 -0.070516
 -0.115708
 -0.087702
 -0.127802
 -0.097886
 -0.145625
 -0.107434
 -0.148171
 -0.107434
 -0.156445
 -0.118254
 -0.165993
 -0.127166
 -0.165993
 -0.126529
 -0.176177
 -0.126529
 -0.178087
 -0.136077
 -0.175541
  -0.13735
 -0.184452
  -0.13735
 -0.176177
 -0.136077
 -0.183179
 -0.145625
 -0.184452
 -0.151353
 -0.171722
 -0.167903
 -0.160264
 -0.174904
 -0.164084
 -0.188908
 -0.168539
    -0.194
 -0.169812
 -0.192727
 -0.167266
 -0.195909
 -0.176814
 -0.204184
 -0.186362
 -0.214368
 -0.195273
 -0.216278
  -0.20482
 -0.223916
 -0.216278
 -0.235373
 -0.224552
   -0.2341
   -0.2341
 -0.254469
 -0.253196
  -0.26338
 -0.275474
 -0.274837
 -0.272928
 -0.284385
 -0.293296
 -0.293296
 -0.311755
 -0.312392
 -0.321939
 -0.311755
  -0.33276
 -0.322576
 -0.340398
 -0.327031
 -0.328941
 -0.326395
 -0.328941
 -0.343581
 -0.321939
 -0.334033
 -0.315574
 -0.337852
 -0.295842
  -0.32003
 -0.285658
 -0.319393
 -0.274837
 -0.311755
 -0.264016
 -0.300298
 -0.252559
 -0.283112
 -0.224552
  -0.26147
  -0.20482
 -0.251923
 -0.194636
 -0.232827
 -0.176814
 -0.215005
 -0.154536
 -0.194636
 -0.137986
 -0.175541
 -0.117618
 -0.156445
 -0.097886
 -0.145625
 -0.090248
 -0.127802
 -0.069243
 -0.097886
 -0.049511
 -0.088338
 -0.041873
 -0.066697
 -0.046328
 -0.046965
  -0.05142
 -0.023414
 -0.032325
 -0.015775
 -0.038053
 -0.003682
 -0.029142
 -0.012593
 -0.039327
 -0.012593
 -0.031052
  -0.01132
 -0.029142
 -0.021504
   -0.0406
 -0.029142
 -0.037417
 -0.039327
 -0.059058
 -0.058422
 -0.068606
 -0.069879
 -0.069243
 -0.069243
 -0.079427
  -0.07879
 -0.077517
 -0.078154
 -0.078154
  -0.06797
 -0.067333
 -0.069243
  -0.06797
  -0.06797
 -0.069243
 -0.059695
 -0.058422
 -0.059058
 -0.057149
 -0.055239
 -0.059695
 -0.059695
  -0.05333
 -0.050784
 -0.049511
 -0.057785
  -0.05142
 -0.048238
 -0.039327
 -0.039327
 -0.030415
 -0.039327
   -0.0406
 -0.041236
 -0.031052
  -0.03869
 -0.029142
 -0.029142
 -0.020231
 -0.019595
  -0.01132
 -0.022141
 -0.010683
 -0.020231
  -0.01132
  -0.01132
 -0.000499
 -0.010683
 -0.001772
 -0.003045
  0.009685
 -0.000499
  0.007776
  0.007776
  0.019233
  0.007139
  0.016687
  0.019233
  0.028144
  0.016687
  0.028781
  0.031963
  0.031963
  0.034509
  0.031327
  0.037055
  0.038328
  0.046603
  0.049149
  0.056151
   0.04724
   0.05806
  0.056787
  0.065062
   0.05806
  0.066972
  0.066972
  0.075883
  0.075883
  0.086067
   0.07461
  0.086704
  0.086067
  0.095615
  0.094978
  0.095615
  0.087977
  0.094978
  0.096251
  0.105162
  0.106435
  0.113437
  0.115983
  0.115347
   0.11471
  0.123621
  0.125531
  0.126167
  0.124258
  0.134442
  0.134442
  0.135079
  0.136988
   0.14208
  0.143353
  0.150355
  0.154174
  0.153538
  0.161176
  0.164358
  0.164358
  0.171997
  0.172633
  0.174543
   0.17327
  0.182181
  0.182817
  0.183454
  0.182817
  0.191729
  0.194275
  0.203186
  0.192365
  0.201276
  0.201913
  0.203822
  0.192365
   0.20064
  0.202549
  0.212734
  0.202549
  0.210187
  0.202549
  0.211461
  0.201913
  0.210824
   0.20064
  0.212097
  0.203186
  0.212097
  0.191729
   0.20064
  0.193002
   0.20064
  0.186636
  0.187273
  0.186636
  0.180271
  0.179635
  0.166268
  0.171997
  0.164995
   0.17327
  0.154811
  0.163085
   0.14399
  0.154811
  0.135079
  0.142717
  0.125531
  0.135079
  0.126167
  0.133806
  0.115347
  0.124894
  0.106435
  0.113437
  0.096251
  0.106435
  0.086704
  0.086067
  0.077156
  0.084794
  0.067608
  0.076519
  0.056151
  0.066335
  0.058697
  0.066335
  0.045967
  0.047876
  0.038965
  0.047876
  0.028781
  0.028144
  0.019233
  0.025598
  0.019233
  0.010958
  0.014777
  0.010322
  0.009685
  0.000137
 -0.001772
 -0.001136
 -0.000499
  -0.00941
 -0.000499
 -0.001136
 -0.000499
  -0.00941
  -0.00941
 -0.010683
 -0.010683
 -0.010683
 -0.008774
 -0.010047
 -0.010683
 -0.010047
  -0.01132
  -0.00941
 -0.010683
  -0.01132
 -0.010683
  -0.00941
 -0.008774
  -0.00941
 -0.010683
 -0.010683
 -0.010683
 -0.010683
  -0.01132
 -0.008774
 -0.010683
 -0.010683
 -0.010047
 -0.008774
 -0.010683
 -0.008774
 -0.006864
  0.002047
 -0.020231
 -0.016412
 -0.042509
 -0.033598
  -0.06606
 -0.050784
 -0.085792
 -0.059695
 -0.095976
 -0.069243
 -0.115708
 -0.090248
 -0.127166
 -0.097886
 -0.146898
 -0.110616
 -0.144988
 -0.107434
 -0.156445
 -0.117618
  -0.16472
 -0.127802
 -0.167266
 -0.127802
 -0.176177
 -0.128439
  -0.17745
  -0.13735
 -0.175541
  -0.13735
 -0.184452
 -0.137986
 -0.176177
 -0.134804
 -0.184452
 -0.148807
 -0.185089
 -0.146261
 -0.174904
  -0.16472
 -0.164084
 -0.171722
 -0.164084
 -0.188271
 -0.169812
  -0.19209
 -0.169176
  -0.19209
 -0.167266
 -0.195273
 -0.176814
 -0.203547
 -0.186362
 -0.214368
 -0.195273
 -0.213732
 -0.205457
 -0.223916
 -0.215641
 -0.237283
 -0.224552
 -0.233464
 -0.234737
 -0.253832
 -0.253196
 -0.264653
 -0.274837
 -0.274837
 -0.274201
 -0.283748
 -0.293296
 -0.291387
 -0.310482
 -0.312392
 -0.321939
 -0.311755
 -0.333397
 -0.320666
 -0.341671
 -0.324485
 -0.331487
 -0.327031
 -0.330851
 -0.342308
 -0.321939
 -0.335306
 -0.316211
 -0.337216
 -0.296479
 -0.320666
 -0.285658
 -0.318757
  -0.27611
 -0.309846
  -0.26338
 -0.300298
 -0.252559
 -0.281202
 -0.223916
  -0.26338
 -0.204184
 -0.251923
 -0.195909
   -0.2341
 -0.175541
 -0.215641
 -0.156445
 -0.194636
 -0.136713
 -0.176177
 -0.116981
 -0.155172
 -0.099159
 -0.146898
 -0.087702
 -0.127802
 -0.069243
 -0.097249
 -0.049511
 -0.089611
 -0.039327
 -0.071152
 -0.044419
 -0.048874
 -0.048874
 -0.026596
 -0.031052
 -0.014502
  -0.03678
 -0.005591
 -0.027233
 -0.010683
  -0.03869
 -0.010683
 -0.029779
 -0.012593
 -0.029142
 -0.020868
 -0.039963
 -0.031688
 -0.039327
 -0.039963
 -0.059058
 -0.059695
 -0.069243
 -0.069879
 -0.067333
 -0.069243
 -0.078154
 -0.076881
 -0.077517
 -0.079427
 -0.077517
 -0.068606
 -0.069879
 -0.067333
 -0.069879
 -0.070516
 -0.069879
 -0.059058
 -0.060968
 -0.059695
 -0.058422
  -0.05142
 -0.061605
 -0.060968
 -0.052693
 -0.049511
  -0.05142
 -0.059058
 -0.049511
 -0.050147
   -0.0406
  -0.03869
 -0.031052
   -0.0406
   -0.0406
 -0.039327
 -0.031052
 -0.039327
 -0.029779
 -0.029142
 -0.020868
 -0.020868
 -0.008774
 -0.020868
 -0.010683
 -0.019595
 -0.010683
  -0.01132
 -0.001772
 -0.008774
 -0.001772
 -0.001136
  0.009049
 -0.000499
  0.007776
  0.009049
  0.017323
  0.007139
  0.018596
   0.01796
  0.026871
  0.016687
  0.028781
  0.030054
  0.031963
    0.0326
    0.0326
  0.035782
  0.037692
   0.04724
  0.047876
  0.056151
  0.047876
  0.056787
   0.05806
  0.066335
  0.057424
  0.066972
  0.068245
  0.076519
  0.076519
   0.08543
  0.075883
  0.086704
   0.08543
  0.094342
  0.096251
  0.096251
  0.086704
  0.095615
  0.094978
  0.104526
  0.105162
  0.115983
  0.115983
  0.115983
  0.114074
  0.125531
  0.125531
  0.124258
  0.124258
  0.135079
  0.136352
  0.135079
  0.134442
  0.144626
  0.145899
  0.150355
  0.154174
  0.152901
  0.163085
  0.163722
  0.162449
   0.17327
   0.17327
  0.171997
  0.172633
  0.183454
  0.183454
  0.181544
  0.182817
  0.194275
  0.193002
  0.201913
  0.193638
  0.202549
  0.201276
  0.202549
  0.192365
  0.201913
  0.202549
  0.212097
  0.203186
  0.210187
  0.202549
  0.212734
  0.200003
  0.210824
  0.203186
  0.210824
  0.201913
  0.212734
  0.193002
  0.200003
  0.192365
  0.202549
  0.183454
  0.187909
  0.187909
  0.182181
  0.179635
  0.166268
  0.171997
  0.164995
   0.17136
  0.156084
  0.163085
  0.145263
  0.152901
  0.137625
   0.14399
  0.124258
  0.134442
  0.126167
  0.133806
   0.11471
  0.122985
  0.106435
  0.115983
  0.096251
  0.107072
   0.08734
   0.08543
  0.076519
  0.086067
  0.065062
  0.075883
  0.057424
  0.065699
  0.055514
  0.067608
  0.047876
   0.04533
  0.038965
  0.047876
  0.026871
  0.028144
   0.01796
  0.026871
  0.018596
  0.012868
  0.014777
  0.010958
  0.009049
  0.000774
 -0.000499
 -0.001136
 -0.000499
  -0.00941
 -0.000499
 -0.001772
 -0.000499
  -0.00941
  -0.01132
 -0.010683
 -0.008774
 -0.010047
 -0.010683
 -0.008137
 -0.010683
 -0.010683
 -0.010683
 -0.008774
  -0.01132
  -0.00941
 -0.010047
  -0.00941
 -0.010683
  -0.00941
 -0.010047
 -0.010683
 -0.010683
 -0.010047
 -0.010683
 -0.010683
 -0.008137
 -0.010683
 -0.010683
  -0.00941
  -0.00941
 -0.008774
 -0.006228
   0.00141
 -0.018322
 -0.015139
   -0.0406
 -0.032961
 -0.064787
 -0.052693
 -0.084519
 -0.060968
 -0.097249
 -0.070516
 -0.116345
 -0.088975
 -0.127166
 -0.099159
 -0.146261
 -0.108707
 -0.147534
  -0.10807
 -0.154536
 -0.117618
  -0.16663
 -0.127166
 -0.165993
 -0.127166
 -0.176177
 -0.129075
 -0.175541
 -0.136713
 -0.174268
  -0.13735
 -0.183815
 -0.136713
 -0.175541
 -0.136077
 -0.183815
 -0.146898
 -0.184452
 -0.147534
 -0.182542
 -0.158355
  -0.16663
 -0.169812
 -0.165357
 -0.185725
 -0.172995
  -0.19209
 -0.169176
 -0.191454
 -0.169176
 -0.195273
  -0.17745
 -0.203547
 -0.185725
 -0.214368
 -0.196546
 -0.214368
  -0.20482
 -0.225189
 -0.216278
  -0.23601
 -0.223916
 -0.234737
 -0.235373
 -0.253196
 -0.251923
 -0.262743
 -0.274837
 -0.274837
 -0.273564
 -0.284385
 -0.293933
  -0.29266
 -0.310482
 -0.311119
 -0.321303
 -0.313028
 -0.332124
 -0.321303
 -0.342308
 -0.321939
 -0.335943
 -0.323212
  -0.33276
 -0.339125
 -0.323849
  -0.33467
 -0.315574
 -0.335943
 -0.297115
 -0.319393
 -0.283748
 -0.318757
  -0.27611
 -0.310482
  -0.26338
 -0.301571
 -0.252559
 -0.280566
 -0.225189
 -0.264016
 -0.204184
 -0.253196
 -0.195273
 -0.234737
 -0.176814
 -0.215641
 -0.157082
 -0.194636
  -0.13735
 -0.176814
 -0.118254
 -0.156445
 -0.098522
 -0.146898
 -0.086429
 -0.127802
 -0.070516
 -0.097249
 -0.050147
 -0.088338
   -0.0406
 -0.078154
 -0.039327
 -0.053966
 -0.046328
 -0.028506
 -0.031688
 -0.015775
 -0.035507
 -0.006228
 -0.029142
  -0.01132
 -0.038053
 -0.011956
 -0.031052
 -0.010683
 -0.027869
 -0.021504
 -0.039327
 -0.029142
  -0.03869
 -0.039963
 -0.058422
 -0.059058
  -0.06797
 -0.071152
 -0.069879
  -0.06797
 -0.079427
 -0.078154
 -0.078154
 -0.078154
 -0.079427
  -0.06797
 -0.067333
  -0.06797
 -0.069879
 -0.069879
  -0.06797
 -0.059058
 -0.060968
 -0.057785
 -0.058422
 -0.050784
 -0.060968
 -0.059695
 -0.053966
 -0.050784
 -0.050784
 -0.056512
 -0.050784
  -0.05142
   -0.0406
  -0.03869
 -0.031052
 -0.039327
 -0.041236
 -0.039327
 -0.029779
 -0.039327
 -0.031052
 -0.029142
 -0.018322
 -0.018958
 -0.010683
 -0.020868
 -0.010683
 -0.020231
 -0.011956
 -0.010683
 -0.000499
 -0.010683
 -0.001136
 -0.001772
  0.009685
 -0.000499
  0.008412
  0.009049
  0.019233
  0.008412
   0.01605
  0.017323
  0.026871
  0.018596
  0.027508
  0.030054
  0.035146
  0.031963
  0.031963
  0.036419
  0.039601
  0.046603
  0.046603
  0.055514
  0.049786
  0.056151
  0.056151
  0.066972
   0.05806
  0.066335
  0.066972
  0.076519
  0.077792
  0.086067
  0.075883
  0.086067
  0.086704
  0.096251
  0.093705
  0.096251
  0.087977
  0.096888
  0.095615
  0.105162
  0.107072
  0.115983
   0.11471
  0.115347
   0.11662
  0.125531
  0.124258
  0.124258
   0.12744
  0.133806
  0.135079
  0.134442
  0.136988
  0.144626
   0.14399
  0.148445
  0.154174
  0.154174
  0.161176
  0.162449
  0.163085
   0.17327
  0.172633
   0.17327
  0.172633
  0.182181
  0.183454
  0.182817
  0.182817
  0.193638
  0.193002
   0.20064
  0.192365
  0.202549
  0.201913
  0.202549
  0.192365
  0.202549
  0.203186
  0.212097
  0.200003
  0.211461
  0.201913
  0.211461
   0.20064
  0.210824
  0.202549
  0.212734
  0.201913
  0.210824
  0.193638
  0.201913
  0.192365
  0.201913
  0.183454
  0.189182
  0.184727
  0.180271
  0.180271
  0.168177
  0.169451
  0.165631
   0.17327
   0.15672
  0.161176
  0.144626
  0.153538
  0.135715
   0.14208
  0.125531
  0.135079
  0.124258
  0.133806
   0.11471
  0.124258
  0.104526
  0.115347
  0.096251
  0.105162
   0.08543
  0.086704
  0.078429
   0.08543
  0.065062
  0.075883
  0.058697
  0.066335
  0.055514
  0.068245
  0.049149
   0.04724
  0.037692
  0.049149
  0.028144
  0.026871
  0.018596
  0.027508
  0.019233
  0.013504
  0.014141
  0.012231
  0.009049
 -0.000499
 -0.003045
 -0.000499
 -0.000499
  -0.00941
 -0.000499
 -0.000499
 -0.000499
  -0.00941
  -0.01132
 -0.010683
 -0.010047
 -0.008137
  -0.00941
 -0.010683
  -0.01132
 -0.010683
 -0.010683
 -0.010683
 -0.010047
  -0.00941
 -0.010683
 -0.010047
 -0.010683
 -0.010683
 -0.008774
 -0.008137
 -0.010047
  -0.01132
 -0.010683
  -0.00941
 -0.010047
 -0.010683
 -0.010683
  -0.00941
  -0.00941
 -0.008774
 -0.005591
 -0.003045
 -0.013866
 -0.016412
  -0.03869
 -0.033598
 -0.064787
 -0.052693
 -0.085792
 -0.059695
 -0.095976
 -0.071152
 -0.115708
 -0.087702
 -0.126529
 -0.100432
 -0.146261
 -0.106797
 -0.146898
 -0.109343
 -0.156445
 -0.116981
  -0.16472
 -0.128439
 -0.165993
 -0.127166
 -0.174268
 -0.127802
 -0.176814
 -0.137986
 -0.174904
 -0.136077
 -0.186362
 -0.136713
 -0.174268
 -0.136077
 -0.184452
 -0.147534
 -0.184452
 -0.146261
 -0.185089
 -0.155172
 -0.170449
 -0.165993
 -0.167903
 -0.183815
 -0.172358
 -0.189544
 -0.170449
 -0.192727
 -0.169176
 -0.192727
 -0.176814
  -0.20482
 -0.185725
 -0.213732
 -0.195909
 -0.215005
  -0.20482
 -0.224552
 -0.215641
 -0.235373
 -0.224552
 -0.233464
   -0.2341
 -0.254469
 -0.253832
  -0.26338
 -0.273564
 -0.273564
 -0.274837
 -0.283112
 -0.293296
 -0.293933
 -0.311755
 -0.310482
 -0.322576
 -0.312392
 -0.331487
 -0.321303
 -0.340398
 -0.321939
 -0.342308
 -0.318757
 -0.333397
 -0.336579
 -0.326395
  -0.33467
  -0.31812
 -0.336579
 -0.298388
  -0.31812
 -0.286294
 -0.321303
 -0.275474
 -0.308572
  -0.26338
 -0.302207
 -0.253832
 -0.281839
 -0.223279
 -0.262107
 -0.205457
 -0.252559
    -0.194
   -0.2341
 -0.176814
 -0.215641
 -0.157082
 -0.194636
  -0.13735
 -0.175541
 -0.116981
 -0.155172
 -0.097886
 -0.147534
 -0.088975
 -0.127802
 -0.068606
 -0.099159
 -0.049511
 -0.087065
   -0.0406
 -0.079427
 -0.034234
 -0.057149
 -0.043146
 -0.032961
 -0.030415
 -0.017685
 -0.033598
 -0.006864
 -0.028506
 -0.012593
  -0.03678
  -0.01132
 -0.028506
 -0.013229
 -0.030415
 -0.020868
 -0.038053
 -0.030415
 -0.039963
 -0.039327
 -0.058422
 -0.059695
 -0.070516
 -0.069879
 -0.068606
  -0.06797
 -0.077517
 -0.080063
 -0.078154
 -0.077517
  -0.07879
 -0.069243
  -0.06797
 -0.066697
  -0.06797
 -0.069879
 -0.069243
 -0.058422
 -0.059695
 -0.060332
 -0.059058
 -0.049511
 -0.060332
 -0.061605
 -0.054603
 -0.048874
 -0.048874
 -0.057785
 -0.052057
 -0.048238
 -0.041236
   -0.0406
 -0.031052
  -0.03869
   -0.0406
   -0.0406
 -0.030415
 -0.038053
 -0.028506
 -0.029142
 -0.018322
 -0.018958
 -0.010683
 -0.020868
  -0.01132
 -0.018958
  -0.01132
 -0.010683
 -0.000499
  -0.01132
 -0.003045
 -0.002409
  0.008412
 -0.000499
  0.008412
  0.009049
  0.019233
  0.009049
  0.016687
   0.01605
  0.027508
   0.01796
  0.027508
  0.028144
  0.035146
   0.03069
    0.0326
  0.036419
  0.038965
   0.04533
  0.049786
  0.056151
  0.049149
  0.054878
  0.056151
  0.066972
  0.056787
  0.065062
  0.066335
  0.077792
  0.075883
  0.084157
 -0.534959
 -0.537505
 -0.494211
 -0.489118
 -0.443277
 -0.448371
 -0.415264
 -0.415264
 -0.369423
 -0.374517
 -0.338863
 -0.336316
 -0.293022
 -0.295569
 -0.252275
 -0.231902
 -0.203888
 -0.188608
 -0.180968
 -0.150407
  -0.14022
  -0.10202
 -0.104567
 -0.074006
  -0.06382
 -0.033259
 -0.035806
 -0.005246
 -0.010339
  0.017675
  0.027862
  0.053329
  0.048235
  0.078795
  0.086436
  0.099169
  0.096622
  0.119543
  0.124636
  0.139916
  0.132276
   0.14501
   0.15265
   0.16793
   0.16029
  0.180663
  0.180663
  0.178117
  0.173023
  0.188303
   0.19085
  0.188303
  0.185757
  0.185757
   0.19085
  0.193397
  0.188303
  0.185757
  0.188303
  0.188303
  0.188303
  0.180663
  0.188303
   0.19085
  0.193397
   0.19085
   0.19085
  0.193397
  0.201037
  0.193397
   0.19849
   0.20613
   0.20613
  0.208677
   0.19849
  0.203584
  0.221411
  0.216317
  0.211224
  0.216317
  0.229051
  0.223957
  0.218864
  0.221411
  0.229051
  0.223957
  0.231597
  0.231597
  0.249424
  0.244331
  0.236691
  0.244331
  0.262158
  0.254518
  0.246877
  0.251971
  0.267251
  0.262158
  0.254518
  0.267251
  0.277438
  0.269798
  0.267251
  0.279985
  0.285078
  0.282531
  0.274891
  0.285078
  0.287625
  0.305452
  0.302905
  0.295265
  0.300358
  0.307998
  0.297811
  0.307998
  0.310545
  0.315638
  0.310545
  0.315638
  0.320732
  0.325825
  0.318185
  0.313092
  0.315638
  0.336012
  0.330919
  0.328372
  0.333465
  0.333465
  0.330919
  0.336012
  0.338559
  0.343652
  0.333465
  0.341105
  0.343652
  0.338559
  0.333465
  0.341105
  0.348745
  0.336012
  0.333465
  0.338559
  0.346199
  0.338559
  0.333465
  0.338559
  0.346199
  0.338559
  0.325825
  0.328372
  0.336012
  0.333465
  0.325825
  0.333465
  0.325825
  0.320732
  0.315638
  0.325825
  0.310545
  0.307998
  0.310545
  0.313092
  0.300358
  0.292718
  0.292718
  0.292718
  0.279985
  0.277438
  0.279985
  0.279985
  0.274891
  0.267251
  0.262158
  0.267251
  0.251971
  0.249424
  0.244331
  0.249424
  0.231597
  0.229051
  0.221411
  0.226504
   0.21377
   0.19849
   0.20613
   0.20613
   0.19085
   0.18321
  0.188303
  0.185757
  0.173023
  0.170477
  0.173023
  0.157743
   0.15265
  0.147556
  0.147556
  0.134823
   0.13737
  0.129729
  0.129729
  0.114449
  0.127183
  0.109356
  0.101716
  0.099169
  0.106809
  0.091529
  0.086436
  0.083889
  0.086436
  0.066062
  0.073702
  0.076249
  0.068609
  0.055875
  0.063515
  0.058422
  0.050782
  0.038048
  0.040595
  0.032955
  0.025315
  0.030408
  0.027862
  0.020221
  0.020221
  0.022768
  0.017675
  0.015128
  0.010035
  0.012581
  0.010035
  0.002395
 -0.002699
  0.002395
  0.007488
  0.002395
 -0.002699
  0.002395
  0.002395
 -0.007792
 -0.012886
 -0.010339
 -0.007792
 -0.005246
 -0.010339
 -0.010339
 -0.000152
 -0.010339
 -0.012886
 -0.007792
 -0.002699
 -0.010339
 -0.012886
 -0.007792
 -0.005246
 -0.007792
 -0.012886
 -0.002699
 -0.005246
 -0.012886
 -0.005246
 -0.002699
 -0.005246
 -0.007792
 -0.005246
 -0.005246
 -0.005246
 -0.010339
 -0.010339
 -0.023072
 -0.010339
 -0.035806
 -0.038353
 -0.053633
 -0.048539
 -0.074006
   -0.0791
  -0.09438
  -0.08674
 -0.119847
  -0.12494
 -0.145314
 -0.145314
 -0.173328
 -0.180968
 -0.214075
 -0.208981
 -0.242088
 -0.249728
 -0.290476
 -0.280289
 -0.326129
 -0.328676
  -0.37197
 -0.359236
 -0.399984
 -0.405077
 -0.453464
 -0.450918
 -0.486571
 -0.494211
 -0.522225
 -0.532412
 -0.583346
 -0.596079
 -0.608813
 -0.639373
 -0.659747
 -0.685214
  -0.68776
 -0.725961
 -0.736148
 -0.771801
 -0.769255
 -0.792175
 -0.799815
 -0.832922
 -0.825282
 -0.853296
 -0.850749
 -0.888949
 -0.886403
 -0.901683
 -0.899136
 -0.932243
 -0.922056
 -0.939883
 -0.939883
 -0.960257
 -0.955164
  -0.95771
 -0.960257
 -0.983177
 -0.978084
  -0.97299
  -0.96535
  -0.97299
 -0.980631
 -0.967897
  -0.95771
 -0.962804
 -0.967897
 -0.955164
 -0.952617
 -0.932243
 -0.932243
 -0.929697
  -0.91187
 -0.899136
 -0.891496
 -0.888949
 -0.868576
 -0.860936
 -0.843109
 -0.838015
 -0.807455
 -0.807455
 -0.787082
 -0.776895
 -0.746334
 -0.748881
 -0.725961
 -0.725961
  -0.68012
 -0.675027
 -0.644466
 -0.644466
 -0.608813
 -0.606266
 -0.570612
 -0.578252
 -0.542599
 -0.540052
 -0.486571
 -0.484025
 -0.453464
 -0.453464
  -0.41017
 -0.405077
  -0.37197
 -0.377063
 -0.343956
 -0.336316
 -0.287929
 -0.293022
 -0.247182
 -0.247182
 -0.206435
 -0.188608
 -0.178421
 -0.155501
  -0.14022
 -0.099473
 -0.104567
 -0.074006
  -0.06382
 -0.033259
 -0.033259
 -0.012886
 -0.010339
  0.022768
  0.027862
  0.050782
  0.048235
  0.078795
  0.088982
  0.101716
  0.096622
  0.116996
  0.124636
   0.13737
  0.134823
  0.147556
   0.15265
  0.170477
   0.16029
  0.178117
  0.185757
  0.180663
  0.180663
  0.180663
  0.188303
   0.19085
  0.188303
  0.180663
  0.185757
   0.19085
  0.188303
  0.180663
  0.185757
   0.19085
  0.185757
  0.180663
  0.180663
  0.185757
  0.201037
   0.19085
   0.19085
  0.195944
  0.203584
   0.19849
  0.201037
  0.208677
  0.211224
  0.203584
  0.201037
   0.20613
  0.221411
   0.21377
  0.211224
   0.21377
  0.229051
  0.223957
  0.223957
  0.221411
  0.226504
  0.229051
  0.234144
  0.229051
  0.241784
  0.251971
  0.244331
  0.241784
  0.249424
  0.257064
  0.251971
  0.254518
  0.257064
  0.267251
  0.259611
  0.262158
  0.269798
  0.277438
  0.272344
  0.279985
  0.285078
  0.282531
  0.272344
  0.290171
  0.295265
  0.300358
  0.290171
  0.300358
  0.305452
  0.300358
  0.292718
  0.315638
  0.313092
  0.300358
  0.305452
  0.323278
  0.318185
  0.315638
  0.318185
  0.323278
  0.320732
  0.325825
  0.336012
  0.338559
  0.330919
  0.325825
  0.330919
  0.343652
  0.341105
  0.333465
  0.341105
  0.343652
  0.346199
  0.333465
  0.338559
  0.336012
  0.333465
  0.338559
  0.343652
  0.341105
  0.330919
  0.343652
  0.343652
  0.341105
  0.333465
  0.338559
  0.336012
  0.330919
  0.325825
  0.325825
  0.328372
  0.336012
  0.320732
  0.313092
  0.323278
  0.323278
  0.310545
  0.302905
  0.310545
  0.315638
  0.297811
  0.295265
  0.292718
  0.292718
  0.279985
  0.274891
  0.279985
  0.287625
  0.274891
  0.269798
  0.259611
  0.269798
  0.241784
  0.249424
  0.249424
  0.241784
  0.226504
  0.231597
  0.229051
  0.216317
  0.211224
  0.208677
  0.203584
   0.19085
  0.193397
   0.19085
   0.19085
  0.178117
  0.170477
  0.170477
   0.17557
  0.157743
  0.150103
  0.150103
   0.15265
  0.139916
  0.132276
  0.129729
  0.134823
  0.122089
  0.124636
  0.111903
  0.106809
  0.096622
  0.099169
  0.094076
  0.088982
  0.078795
  0.078795
  0.073702
  0.068609
  0.066062
  0.066062
  0.063515
  0.068609
  0.048235
  0.048235
  0.048235
  0.040595
  0.025315
  0.027862
  0.038048
  0.025315
  0.022768
  0.017675
  0.022768
  0.015128
  0.007488
  0.012581
  0.017675
  0.004941
 -0.002699
 -0.002699
  0.007488
  0.002395
 -0.005246
  0.004941
  0.010035
 -0.010339
 -0.012886
 -0.012886
 -0.002699
 -0.007792
 -0.012886
 -0.005246
 -0.002699
 -0.007792
 -0.012886
 -0.007792
 -0.010339
 -0.012886
 -0.010339
 -0.007792
 -0.002699
 -0.012886
 -0.007792
 -0.002699
 -0.012886
 -0.012886
 -0.010339
 -0.002699
 -0.010339
 -0.007792
 -0.000152
  0.002395
 -0.007792
 -0.012886
 -0.005246
 -0.002699
 -0.015432
 -0.012886
 -0.043446
 -0.033259
 -0.045993
 -0.053633
 -0.066366
   -0.0791
 -0.091833
 -0.084193
 -0.119847
   -0.1173
 -0.155501
 -0.152954
 -0.173328
 -0.183514
 -0.214075
 -0.208981
 -0.239542
 -0.236995
 -0.285382
 -0.290476
 -0.328676
 -0.318489
 -0.366877
  -0.37197
  -0.40253
 -0.399984
 -0.448371
 -0.458558
 -0.491665
 -0.491665
 -0.529865
 -0.532412
 -0.583346
 -0.593533
 -0.608813
 -0.639373
 -0.659747
 -0.682667
 -0.692854
 -0.723414
 -0.736148
 -0.766708
 -0.764161
 -0.794722
 -0.802362
 -0.827829
 -0.820189
 -0.853296
 -0.855842
 -0.891496
 -0.888949
 -0.901683
 -0.901683
  -0.92715
 -0.924603
  -0.93479
 -0.947523
  -0.95771
 -0.955164
 -0.962804
 -0.960257
 -0.975537
 -0.975537
 -0.975537
 -0.970444
  -0.97299
 -0.975537
 -0.960257
 -0.960257
 -0.960257
 -0.962804
 -0.960257
 -0.955164
 -0.929697
 -0.932243
 -0.929697
  -0.91187
 -0.901683
 -0.888949
 -0.888949
 -0.871123
 -0.860936
 -0.845656
 -0.845656
 -0.807455
 -0.804908
 -0.784535
 -0.787082
 -0.743788
 -0.746334
 -0.718321
 -0.728508
 -0.682667
 -0.675027
 -0.647013
 -0.647013
 -0.606266
 -0.603719
 -0.578252
 -0.583346
 -0.542599
 -0.534959
 -0.494211
 -0.486571
 -0.445824
 -0.445824
  -0.41781
 -0.412717
 -0.374517
  -0.37197
 -0.338863
 -0.333769
 -0.287929
 -0.298116
 -0.249728
 -0.247182
 -0.198794
 -0.193701
 -0.186061
 -0.155501
 -0.137674
 -0.104567
 -0.104567
 -0.076553
 -0.061273
 -0.033259
 -0.033259
 -0.012886
 -0.010339
  0.022768
  0.027862
  0.053329
  0.045688
  0.081342
  0.086436
  0.099169
  0.096622
  0.119543
  0.122089
  0.139916
  0.134823
  0.150103
  0.150103
   0.16793
  0.165383
  0.178117
  0.180663
  0.173023
   0.17557
  0.193397
  0.188303
   0.18321
  0.188303
   0.19085
   0.19085
  0.180663
  0.185757
   0.19085
  0.180663
  0.185757
   0.19085
   0.19085
  0.185757
   0.19085
  0.195944
   0.19085
  0.193397
  0.201037
  0.193397
   0.19085
  0.208677
  0.203584
  0.201037
  0.203584
  0.208677
  0.203584
  0.216317
  0.221411
  0.218864
  0.211224
  0.221411
  0.226504
  0.223957
   0.21377
  0.221411
  0.221411
  0.229051
  0.231597
  0.249424
  0.244331
  0.236691
  0.246877
  0.259611
  0.251971
  0.249424
  0.254518
  0.267251
  0.257064
  0.259611
  0.269798
  0.272344
  0.264704
  0.269798
  0.282531
  0.277438
  0.282531
  0.290171
  0.292718
  0.287625
  0.302905
  0.302905
  0.302905
  0.292718
  0.300358
  0.305452
  0.310545
  0.305452
  0.310545
  0.315638
  0.320732
  0.320732
  0.323278
  0.313092
  0.315638
  0.318185
  0.333465
  0.330919
  0.325825
  0.336012
  0.330919
  0.328372
  0.341105
  0.348745
  0.341105
  0.338559
  0.343652
  0.333465
  0.336012
  0.343652
  0.333465
  0.341105
  0.343652
  0.338559
  0.336012
  0.343652
  0.341105
  0.333465
  0.338559
  0.346199
  0.338559
  0.333465
  0.336012
  0.330919
  0.328372
  0.333465
  0.330919
  0.313092
  0.315638
  0.328372
  0.315638
  0.302905
  0.313092
  0.313092
  0.302905
  0.297811
  0.305452
  0.287625
  0.290171
  0.282531
  0.279985
  0.277438
  0.282531
  0.272344
  0.269798
  0.254518
  0.262158
  0.259611
  0.251971
  0.241784
  0.246877
  0.231597
  0.229051
  0.229051
  0.218864
   0.21377
   0.21377
  0.203584
  0.193397
  0.193397
   0.19085
   0.19085
  0.173023
  0.178117
  0.178117
   0.16793
  0.155196
  0.155196
   0.15265
  0.142463
   0.13737
  0.139916
  0.129729
  0.124636
  0.116996
  0.127183
  0.111903
  0.101716
  0.101716
  0.104262
  0.088982
  0.086436
  0.088982
  0.076249
  0.066062
  0.068609
  0.076249
  0.071155
  0.055875
  0.068609
  0.050782
  0.045688
  0.043142
  0.048235
  0.027862
  0.027862
  0.030408
  0.030408
  0.022768
  0.015128
  0.022768
  0.022768
  0.012581
  0.007488
  0.012581
  0.010035
  0.002395
 -0.000152
  0.002395
  0.010035
 -0.000152
 -0.002699
  0.007488
 -0.007792
 -0.012886
 -0.010339
 -0.002699
 -0.005246
 -0.012886
 -0.010339
 -0.005246
 -0.015432
 -0.005246
 -0.000152
 -0.007792
 -0.007792
 -0.002699
 -0.005246
 -0.012886
 -0.005246
 -0.002699
 -0.005246
 -0.010339
 -0.000152
 -0.007792
 -0.012886
 -0.007792
 -0.002699
 -0.010339
 -0.015432
 -0.007792
 -0.002699
 -0.005246
 -0.012886
 -0.007792
 -0.012886
 -0.035806
 -0.035806
 -0.048539
 -0.053633
 -0.076553
 -0.074006
 -0.089287
 -0.091833
 -0.127487
  -0.12494
 -0.142767
 -0.155501
 -0.186061
 -0.180968
 -0.203888
 -0.206435
 -0.252275
 -0.247182
 -0.277742
 -0.285382
 -0.331223
 -0.323583
 -0.359236
  -0.36433
  -0.41017
  -0.40253
 -0.445824
 -0.443277
 -0.484025
 -0.494211
 -0.527318
 -0.522225
 -0.578252
 -0.590986
 -0.616453
 -0.631733
 -0.654653
  -0.68776
 -0.692854
 -0.723414
 -0.731054
 -0.769255
 -0.769255
 -0.792175
 -0.797268
 -0.832922
 -0.830375
 -0.853296
 -0.855842
 -0.886403
 -0.891496
 -0.901683
 -0.899136
 -0.924603
 -0.932243
  -0.95007
 -0.939883
 -0.952617
 -0.955164
 -0.955164
 -0.960257
  -0.97299
 -0.983177
  -0.97299
 -0.967897
  -0.97299
 -0.978084
 -0.978084
 -0.947523
 -0.960257
 -0.967897
 -0.955164
  -0.95007
  -0.93479
 -0.939883
  -0.91951
 -0.916963
 -0.909323
 -0.888949
 -0.881309
 -0.868576
 -0.868576
 -0.838015
 -0.827829
 -0.810002
 -0.812549
 -0.784535
 -0.776895
 -0.748881
 -0.756521
 -0.723414
 -0.715774
 -0.685214
 -0.685214
  -0.64192
  -0.64192
 -0.616453
 -0.601173
 -0.570612
 -0.575706
 -0.542599
 -0.542599
 -0.478931
 -0.491665
 -0.453464
 -0.445824
 -0.405077
  -0.41781
 -0.377063
 -0.374517
 -0.331223
 -0.333769
 -0.300662
 -0.298116
 -0.239542
 -0.247182
 -0.216621
 -0.193701
 -0.178421
 -0.165687
  -0.14022
 -0.104567
 -0.099473
 -0.076553
  -0.06382
 -0.033259
 -0.033259
 -0.010339
 -0.007792
  0.025315
  0.022768
  0.045688
  0.053329
  0.088982
  0.083889
  0.099169
  0.099169
  0.124636
  0.119543
  0.129729
  0.129729
  0.147556
  0.155196
   0.16793
  0.165383
   0.17557
  0.185757
  0.178117
  0.170477
  0.188303
   0.19085
  0.188303
  0.188303
  0.185757
   0.19085
  0.185757
  0.180663
  0.185757
   0.19085
  0.188303
  0.180663
  0.188303
   0.19085
   0.19085
   0.19085
   0.19085
  0.193397
  0.201037
  0.201037
   0.19849
   0.19849
   0.20613
  0.208677
  0.211224
   0.20613
   0.19849
  0.216317
  0.211224
  0.221411
  0.211224
  0.216317
  0.226504
  0.229051
  0.226504
  0.218864
  0.221411
  0.236691
  0.236691
  0.241784
  0.239237
  0.244331
  0.241784
  0.254518
  0.254518
  0.249424
  0.254518
  0.269798
  0.262158
  0.254518
  0.262158
  0.279985
  0.269798
  0.264704
  0.277438
  0.287625
  0.279985
  0.274891
  0.287625
  0.300358
  0.302905
  0.297811
  0.297811
  0.305452
  0.302905
  0.295265
  0.313092
  0.315638
  0.313092
  0.313092
  0.318185
  0.320732
  0.320732
  0.323278
  0.315638
  0.313092
  0.323278
  0.333465
  0.333465
  0.330919
  0.333465
  0.323278
  0.341105
  0.341105
  0.343652
  0.343652
  0.333465
  0.338559
  0.343652
  0.338559
  0.330919
  0.336012
  0.346199
  0.341105
  0.333465
  0.336012
  0.343652
  0.341105
  0.333465
  0.338559
  0.336012
  0.325825
  0.330919
  0.336012
  0.330919
  0.323278
  0.330919
  0.325825
  0.318185
  0.318185
  0.320732
  0.315638
  0.302905
  0.307998
  0.318185
  0.302905
  0.295265
  0.290171
  0.295265
  0.279985
  0.272344
  0.282531
  0.285078
  0.272344
  0.269798
  0.262158
  0.267251
  0.251971
  0.249424
  0.241784
  0.249424
  0.234144
  0.229051
  0.223957
  0.226504
   0.21377
   0.20613
  0.201037
  0.201037
  0.193397
  0.180663
  0.188303
  0.185757
  0.178117
  0.162836
   0.16793
  0.157743
  0.157743
  0.142463
  0.150103
  0.139916
  0.132276
  0.129729
  0.129729
  0.127183
  0.119543
  0.109356
  0.104262
  0.096622
  0.104262
  0.096622
  0.088982
  0.071155
  0.078795
  0.073702
  0.076249
  0.068609
  0.063515
  0.063515
  0.068609
  0.048235
  0.050782
  0.035502
  0.043142
  0.038048
  0.030408
  0.025315
  0.027862
  0.027862
  0.020221
  0.015128
  0.015128
  0.017675
  0.012581
  0.004941
 -0.000152
  0.015128
  0.004941
 -0.005246
  0.004941
  0.010035
 -0.000152
 -0.005246
 -0.005246
 -0.000152
 -0.007792
 -0.012886
 -0.012886
 -0.012886
 -0.002699
 -0.007792
 -0.012886
 -0.007792
 -0.005246
 -0.007792
 -0.012886
 -0.010339
 -0.005246
 -0.012886
 -0.015432
 -0.005246
 -0.000152
 -0.007792
 -0.012886
 -0.010339
 -0.002699
 -0.005246
 -0.012886
 -0.005246
 -0.000152
 -0.007792
 -0.015432
 -0.010339
 -0.002699
 -0.012886
 -0.020526
 -0.033259
 -0.028166
 -0.051086
 -0.053633
 -0.076553
 -0.066366
  -0.09438
 -0.099473
 -0.119847
   -0.1173
 -0.150407
 -0.155501
 -0.178421
 -0.173328
 -0.208981
 -0.211528
 -0.249728
 -0.239542
 -0.287929
 -0.290476
 -0.323583
 -0.321036
  -0.36433
 -0.366877
  -0.40253
 -0.399984
 -0.456011
 -0.453464
 -0.481478
 -0.491665
 -0.532412
 -0.524772
 -0.575706
 -0.588439
    -0.619
 -0.629186
 -0.654653
  -0.68776
   -0.6954
 -0.720867
 -0.731054
 -0.771801
 -0.769255
 -0.794722
 -0.799815
 -0.832922
 -0.827829
 -0.850749
 -0.860936
 -0.891496
 -0.883856
 -0.899136
  -0.90423
 -0.932243
  -0.92715
 -0.939883
  -0.94243
 -0.960257
  -0.95007
 -0.962804
 -0.970444
  -0.97299
 -0.967897
 -0.978084
 -0.983177
  -0.97299
 -0.967897
 -0.960257
 -0.970444
 -0.960257
 -0.955164
 -0.952617
 -0.952617
 -0.939883
  -0.92715
  -0.92715
  -0.91951
 -0.906776
 -0.888949
 -0.881309
 -0.873669
 -0.868576
 -0.843109
 -0.840562
 -0.817642
 -0.807455
 -0.779441
 -0.779441
 -0.756521
 -0.748881
 -0.715774
 -0.720867
 -0.682667
  -0.68776
  -0.64192
 -0.639373
 -0.603719
 -0.611359
 -0.575706
 -0.573159
 -0.534959
 -0.537505
 -0.491665
 -0.491665
 -0.440731
 -0.448371
  -0.41781
 -0.412717
 -0.369423
  -0.37197
 -0.336316
 -0.336316
 -0.287929
 -0.295569
 -0.254822
 -0.252275
 -0.208981
 -0.193701
 -0.178421
 -0.168234
 -0.142767
 -0.107113
 -0.099473
  -0.07146
 -0.068913
 -0.030712
 -0.035806
 -0.010339
 -0.005246
  0.027862
  0.022768
  0.048235
  0.048235
  0.088982
  0.076249
  0.094076
  0.099169
  0.124636
  0.114449
   0.13737
   0.14501
   0.14501
  0.150103
  0.173023
   0.16793
  0.173023
   0.17557
  0.185757
  0.178117
  0.180663
  0.185757
  0.185757
  0.188303
   0.18321
   0.19085
  0.185757
   0.18321
  0.188303
   0.19085
  0.188303
  0.188303
  0.180663
  0.188303
   0.19085
   0.19085
  0.193397
   0.19085
  0.195944
  0.201037
  0.193397
  0.201037
  0.203584
  0.211224
   0.20613
  0.201037
  0.201037
   0.21377
  0.221411
   0.21377
  0.208677
  0.218864
  0.221411
  0.226504
  0.226504
  0.221411
  0.223957
  0.234144
  0.239237
  0.244331
  0.239237
  0.241784
  0.249424
  0.251971
  0.251971
  0.244331
  0.254518
  0.267251
  0.262158
  0.257064
  0.259611
  0.277438
  0.272344
  0.269798
  0.274891
  0.285078
  0.290171
  0.282531
  0.285078
  0.290171
  0.305452
  0.300358
  0.290171
  0.297811
  0.302905
  0.297811
  0.313092
  0.307998
  0.313092
  0.315638
  0.320732
  0.313092
  0.315638
  0.323278
  0.315638
  0.315638
  0.333465
  0.336012
  0.328372
  0.325825
  0.330919
  0.330919
  0.333465
  0.341105
  0.341105
  0.343652
  0.333465
  0.341105
  0.343652
  0.338559
  0.333465
  0.341105
  0.336012
  0.346199
  0.336012
  0.333465
  0.338559
  0.338559
  0.333465
  0.338559
  0.343652
  0.333465
  0.333465
  0.325825
  0.328372
  0.333465
  0.330919
  0.313092
  0.323278
  0.325825
  0.320732
  0.302905
  0.310545
  0.313092
  0.313092
  0.300358
  0.297811
  0.295265
  0.290171
  0.277438
  0.279985
  0.285078
  0.282531
  0.267251
  0.272344
  0.267251
  0.262158
  0.246877
  0.251971
  0.249424
  0.244331
  0.226504
  0.234144
  0.229051
  0.226504
  0.211224
  0.208677
  0.208677
  0.201037
   0.19085
  0.188303
   0.19085
  0.180663
  0.170477
   0.16793
  0.170477
  0.157743
  0.150103
   0.14501
  0.147556
  0.142463
  0.139916
  0.124636
  0.129729
  0.127183
  0.122089
  0.106809
  0.109356
  0.106809
  0.104262
  0.091529
  0.086436
  0.083889
  0.086436
  0.073702
  0.068609
  0.066062
  0.068609
  0.068609
  0.060969
  0.048235
  0.048235
  0.038048
  0.048235
  0.035502
  0.027862
  0.030408
  0.032955
  0.022768
  0.020221
  0.025315
  0.017675
  0.004941
  0.010035
  0.015128
  0.002395
  0.002395
 -0.002699
  0.004941
  0.007488
  0.002395
 -0.002699
 -0.002699
 -0.000152
 -0.010339
 -0.012886
 -0.005246
 -0.005246
 -0.010339
 -0.012886
 -0.010339
 -0.000152
 -0.007792
 -0.012886
 -0.005246
  0.002395
 -0.012886
 -0.005246
 -0.010339
 -0.010339
 -0.002699
 -0.012886
 -0.015432
 -0.010339
 -0.000152
 -0.007792
 -0.012886
 -0.005246
 -0.002699
 -0.010339
 -0.012886
 -0.005246
 -0.002699
 -0.005246
 -0.017979
 -0.015432
 -0.028166
 -0.033259
  -0.06382
 -0.048539
  -0.07146
 -0.076553
 -0.091833
  -0.08674
 -0.122394
 -0.127487
 -0.150407
 -0.145314
 -0.178421
 -0.186061
 -0.206435
 -0.201341
 -0.244635
 -0.254822
 -0.287929
 -0.282836
 -0.321036
 -0.328676
 -0.361783
 -0.361783
  -0.40253
 -0.407624
 -0.450918
 -0.450918
 -0.484025
 -0.496758
 -0.532412
 -0.527318
 -0.573159
 -0.575706
 -0.624093
 -0.629186
  -0.64956
 -0.677574
 -0.697947
 -0.736148
 -0.725961
 -0.764161
 -0.774348
 -0.797268
 -0.794722
 -0.825282
 -0.830375
 -0.855842
 -0.850749
 -0.881309
 -0.891496
  -0.90423
 -0.899136
 -0.924603
 -0.929697
  -0.95007
 -0.944977
 -0.947523
 -0.952617
  -0.96535
 -0.962804
  -0.96535
 -0.975537
 -0.980631
  -0.97299
 -0.975537
 -0.970444
 -0.960257
 -0.970444
 -0.960257
  -0.96535
 -0.947523
  -0.95007
 -0.944977
  -0.93479
  -0.91951
 -0.922056
 -0.906776
 -0.901683
 -0.883856
 -0.868576
 -0.863482
 -0.848202
 -0.838015
 -0.804908
 -0.807455
 -0.787082
 -0.779441
 -0.743788
 -0.756521
 -0.723414
 -0.720867
 -0.675027
 -0.682667
 -0.647013
 -0.647013
 -0.598626
 -0.611359
 -0.580799
 -0.575706
 -0.534959
 -0.532412
 -0.494211
 -0.494211
 -0.450918
 -0.443277
 -0.412717
 -0.420357
 -0.374517
 -0.369423
 -0.328676
 -0.333769
 -0.300662
 -0.295569
 -0.239542
 -0.254822
 -0.208981
 -0.198794
 -0.180968
 -0.170781
  -0.14022
  -0.10966
  -0.10202
 -0.074006
 -0.066366
 -0.035806
 -0.033259
 -0.015432
 -0.010339
  0.027862
  0.022768
  0.045688
  0.053329
  0.083889
  0.073702
  0.099169
  0.104262
  0.119543
  0.111903
  0.139916
  0.142463
   0.14501
   0.14501
   0.17557
   0.16793
   0.17557
  0.178117
   0.18321
  0.178117
  0.180663
   0.19085
   0.19085
  0.188303
  0.188303
   0.19085
  0.188303
  0.180663
   0.19085
  0.188303
   0.18321
   0.18321
  0.185757
   0.19085
  0.185757
  0.193397
  0.201037
  0.193397
   0.19085
   0.19849
   0.19849
   0.20613
   0.19849
  0.208677
  0.211224
  0.201037
  0.201037
  0.218864
   0.21377
  0.211224
  0.216317
  0.229051
  0.221411
  0.218864
  0.221411
  0.226504
  0.223957
  0.229051
  0.234144
  0.246877
  0.249424
  0.234144
  0.241784
  0.259611
  0.254518
  0.246877
  0.254518
  0.262158
  0.259611
  0.257064
  0.262158
  0.274891
  0.269798
  0.264704
  0.277438
  0.287625
  0.279985
  0.274891
  0.297811
  0.292718
  0.282531
  0.302905
  0.305452
  0.302905
  0.300358
  0.295265
  0.310545
  0.320732
  0.310545
  0.310545
  0.320732
  0.320732
  0.320732
  0.313092
  0.320732
  0.323278
  0.333465
  0.325825
  0.330919
  0.333465
  0.336012
  0.328372
  0.333465
  0.338559
  0.343652
  0.338559
  0.333465
  0.333465
  0.341105
  0.343652
  0.336012
  0.333465
  0.338559
  0.343652
  0.338559
  0.336012
  0.341105
  0.346199
  0.338559
  0.333465
  0.338559
  0.336012
  0.330919
  0.325825
  0.330919
  0.336012
  0.330919
  0.315638
  0.318185
  0.318185
  0.315638
  0.310545
  0.315638
  0.313092
  0.302905
  0.300358
  0.305452
  0.292718
  0.285078
  0.282531
  0.285078
  0.282531
  0.274891
  0.269798
  0.279985
  0.262158
  0.254518
  0.251971
  0.254518
  0.244331
  0.239237
  0.231597
  0.239237
  0.223957
  0.218864
   0.21377
  0.216317
  0.201037
   0.19085
  0.193397
   0.19085
  0.185757
   0.17557
   0.17557
  0.173023
   0.16793
  0.157743
   0.16029
  0.150103
   0.14501
  0.139916
   0.13737
  0.129729
  0.132276
  0.119543
  0.116996
  0.109356
  0.114449
  0.099169
  0.091529
  0.083889
  0.088982
  0.086436
  0.081342
  0.063515
  0.066062
  0.068609
  0.076249
  0.063515
  0.063515
  0.048235
  0.058422
  0.043142
  0.035502
  0.030408
  0.027862
  0.035502
  0.027862
  0.017675
  0.022768
  0.030408
  0.017675
  0.010035
  0.012581
  0.017675
  0.004941
 -0.002699
  0.004941
  0.007488
  0.004941
 -0.005246
  0.002395
  0.004941
 -0.005246
 -0.015432
 -0.012886
 -0.002699
 -0.007792
 -0.015432
 -0.015432
 -0.000152
 -0.010339
 -0.012886
 -0.007792
 -0.005246
 -0.005246
 -0.015432
 -0.007792
 -0.002699
 -0.010339
 -0.010339
  0.002395
 -0.007792
 -0.012886
 -0.005246
 -0.002699
 -0.005246
 -0.010339
 -0.005246
 -0.002699
 -0.010339
 -0.015432
 -0.007792
 -0.007792
 -0.007792
 -0.012886
 -0.035806
 -0.035806
 -0.048539
 -0.051086
 -0.068913
 -0.068913
 -0.089287
 -0.091833
 -0.130034
 -0.119847
 -0.147861
 -0.150407
 -0.186061
 -0.186061
 -0.198794
 -0.208981
 -0.252275
 -0.249728
 -0.277742
 -0.287929
 -0.328676
 -0.323583
 -0.361783
 -0.361783
 -0.407624
 -0.397437
 -0.445824
 -0.450918
 -0.494211
 -0.489118
 -0.522225
 -0.524772
 -0.580799
 -0.573159
    -0.619
 -0.624093
   -0.6572
  -0.67248
 -0.685214
 -0.725961
 -0.736148
 -0.761615
 -0.764161
 -0.797268
 -0.802362
 -0.827829
 -0.820189
 -0.858389
 -0.863482
 -0.888949
 -0.878763
 -0.899136
 -0.906776
 -0.922056
 -0.929697
  -0.95007
 -0.944977
  -0.95007
 -0.952617
 -0.962804
 -0.962804
 -0.967897
  -0.97299
 -0.967897
 -0.970444
 -0.980631
 -0.980631
  -0.95771
 -0.955164
 -0.962804
 -0.970444
 -0.952617
  -0.95007
 -0.939883
  -0.93479
  -0.91951
 -0.924603
 -0.906776
 -0.901683
 -0.878763
 -0.868576
 -0.868576
 -0.845656
 -0.838015
 -0.804908
 -0.807455
 -0.781988
 -0.771801
 -0.748881
 -0.756521
 -0.720867
 -0.715774
 -0.677574
 -0.682667
 -0.644466
 -0.644466
 -0.611359
 -0.608813
 -0.573159
 -0.578252
 -0.542599
 -0.534959
 -0.491665
 -0.496758
 -0.450918
 -0.443277
 -0.412717
  -0.41781
 -0.374517
 -0.366877
 -0.336316
 -0.338863
 -0.295569
 -0.285382
 -0.249728
 -0.249728
 -0.208981
 -0.206435
 -0.178421
 -0.173328
 -0.142767
  -0.10966
 -0.104567
 -0.081646
  -0.06382
 -0.033259
 -0.033259
 -0.017979
 -0.007792
  0.027862
  0.025315
  0.045688
  0.050782
  0.088982
  0.083889
  0.099169
  0.099169
  0.119543
  0.127183
  0.142463
  0.139916
  0.142463
  0.150103
  0.170477
   0.16793
  0.180663
  0.173023
  0.178117
  0.185757
  0.193397
  0.188303
   0.18321
  0.180663
  0.188303
   0.19085
  0.193397
  0.185757
  0.185757
  0.180663
  0.188303
   0.19085
   0.19085
  0.188303
  0.185757
   0.19085
  0.201037
  0.195944
   0.19085
  0.195944
   0.20613
  0.203584
   0.19849
   0.20613
  0.211224
  0.208677
   0.19849
  0.211224
  0.218864
  0.208677
  0.208677
  0.218864
  0.221411
  0.229051
  0.221411
  0.221411
  0.226504
  0.241784
  0.234144
  0.239237
  0.244331
  0.246877
  0.246877
  0.246877
  0.249424
  0.262158
  0.249424
  0.257064
  0.262158
  0.267251
  0.262158
  0.262158
  0.272344
  0.279985
  0.269798
  0.279985
  0.279985
  0.287625
  0.290171
  0.285078
  0.300358
  0.297811
  0.305452
  0.300358
  0.295265
  0.297811
  0.310545
  0.310545
  0.302905
  0.307998
  0.318185
  0.325825
  0.318185
  0.315638
  0.313092
  0.325825
  0.320732
  0.330919
  0.333465
  0.330919
  0.323278
  0.328372
  0.341105
  0.341105
  0.336012
  0.333465
  0.343652
  0.343652
  0.341105
  0.336012
  0.338559
  0.346199
  0.341105
  0.330919
  0.338559
  0.338559
  0.343652
  0.333465
  0.338559
  0.343652
  0.341105
  0.325825
  0.328372
  0.325825
  0.328372
  0.330919
  0.338559
  0.320732
  0.315638
  0.315638
  0.323278
  0.307998
  0.302905
  0.310545
  0.315638
  0.300358
  0.295265
  0.292718
  0.295265
  0.285078
  0.274891
  0.282531
  0.282531
  0.277438
  0.272344
  0.254518
  0.262158
  0.251971
  0.249424
  0.241784
  0.246877
  0.229051
  0.229051
  0.221411
  0.223957
   0.20613
   0.20613
  0.208677
   0.19849
   0.19085
   0.19085
  0.195944
  0.180663
  0.170477
  0.170477
  0.173023
   0.15265
   0.16029
   0.15265
  0.147556
  0.134823
  0.139916
  0.134823
  0.132276
  0.114449
  0.122089
  0.109356
  0.104262
  0.101716
  0.106809
  0.088982
  0.086436
  0.078795
  0.083889
  0.071155
  0.068609
  0.078795
  0.076249
  0.058422
  0.058422
  0.053329
  0.048235
  0.038048
  0.038048
  0.038048
  0.035502
  0.027862
  0.030408
  0.027862
  0.020221
  0.017675
  0.017675
  0.017675
  0.017675
  0.004941
 -0.000152
  0.007488
  0.002395
 -0.002699
  0.002395
  0.007488
  0.004941
 -0.002699
 -0.007792
 -0.002699
 -0.005246
 -0.017979
 -0.007792
 -0.002699
 -0.007792
 -0.012886
 -0.007792
 -0.002699
 -0.005246
 -0.012886
 -0.005246
 -0.002699
 -0.012886
 -0.012886
 -0.007792
 -0.002699
 -0.007792
 -0.015432
 -0.007792
 -0.007792
 -0.010339
 -0.007792
 -0.005246
 -0.007792
 -0.012886
 -0.007792
 -0.000152
 -0.005246
 -0.010339
 -0.012886
 -0.015432
 -0.040899
 -0.033259
 -0.048539
 -0.056179
 -0.074006
 -0.074006
  -0.08674
 -0.091833
 -0.127487
 -0.127487
 -0.145314
 -0.150407
 -0.186061
 -0.175874
 -0.201341
 -0.211528
 -0.247182
 -0.244635
 -0.280289
 -0.282836
 -0.336316
 -0.323583
  -0.35669
 -0.361783
 -0.405077
 -0.399984
 -0.443277
 -0.448371
 -0.489118
 -0.499305
 -0.524772
 -0.522225
 -0.575706
 -0.575706
    -0.619
 -0.624093
 -0.647013
 -0.669933
 -0.697947
 -0.723414
 -0.723414
 -0.761615
 -0.776895
 -0.792175
 -0.794722
 -0.827829
 -0.830375
 -0.853296
 -0.850749
 -0.886403
 -0.888949
  -0.90423
 -0.901683
 -0.924603
 -0.929697
 -0.939883
 -0.944977
  -0.95771
 -0.952617
 -0.960257
 -0.962804
 -0.980631
 -0.975537
  -0.97299
 -0.970444
 -0.970444
 -0.983177
 -0.960257
  -0.95771
 -0.962804
 -0.970444
 -0.952617
 -0.947523
  -0.93479
  -0.94243
 -0.924603
 -0.922056
 -0.909323
 -0.899136
 -0.881309
 -0.871123
 -0.868576
 -0.838015
 -0.838015
 -0.815095
 -0.807455
 -0.774348
 -0.779441
 -0.756521
 -0.743788
 -0.718321
 -0.725961
  -0.68776
  -0.68012
  -0.64192
  -0.64192
 -0.608813
 -0.606266
 -0.570612
 -0.575706
 -0.542599
 -0.537505
 -0.484025
 -0.491665
 -0.456011
 -0.450918
 -0.407624
 -0.412717
 -0.374517
 -0.369423
 -0.323583
 -0.336316
 -0.300662
 -0.295569
 -0.239542
 -0.249728
 -0.206435
 -0.203888
 -0.178421
 -0.178421
  -0.14022
 -0.107113
 -0.107113
 -0.074006
 -0.056179
 -0.038353
 -0.038353
 -0.012886
 -0.002699
  0.020221
  0.017675
  0.055875
  0.050782
  0.076249
  0.081342
  0.104262
  0.099169
  0.114449
  0.122089
   0.13737
  0.129729
   0.14501
   0.15265
  0.162836
  0.165383
   0.18321
  0.180663
  0.173023
   0.17557
  0.188303
  0.180663
  0.185757
   0.19085
  0.188303
   0.18321
  0.188303
  0.193397
  0.185757
  0.185757
  0.185757
  0.195944
  0.188303
  0.180663
  0.188303
  0.195944
   0.19085
  0.195944
  0.201037
  0.193397
   0.19849
   0.20613
   0.20613
   0.19849
  0.201037
  0.208677
  0.201037
   0.20613
   0.21377
  0.218864
  0.208677
  0.226504
  0.226504
  0.223957
  0.218864
  0.223957
  0.229051
  0.231597
  0.229051
  0.244331
  0.249424
  0.241784
  0.236691
  0.251971
  0.257064
  0.254518
  0.249424
  0.262158
  0.267251
  0.259611
  0.267251
  0.279985
  0.269798
  0.267251
  0.272344
  0.290171
  0.282531
  0.277438
  0.290171
  0.295265
  0.295265
  0.297811
  0.302905
  0.300358
  0.292718
  0.297811
  0.313092
  0.313092
  0.310545
  0.305452
  0.320732
  0.325825
  0.320732
  0.320732
  0.313092
  0.320732
  0.333465
  0.336012
  0.330919
  0.323278
  0.330919
  0.336012
  0.341105
  0.341105
  0.333465
  0.338559
  0.343652
  0.341105
  0.330919
  0.336012
  0.343652
  0.341105
  0.333465
  0.338559
  0.343652
  0.341105
  0.333465
  0.343652
  0.343652
  0.341105
  0.343652
  0.325825
  0.330919
  0.333465
  0.330919
  0.323278
  0.330919
  0.318185
  0.328372
  0.320732
  0.315638
  0.310545
  0.320732
  0.310545
  0.305452
  0.300358
  0.305452
  0.292718
  0.285078
  0.279985
  0.282531
  0.285078
  0.282531
  0.272344
  0.279985
  0.262158
  0.262158
  0.246877
  0.259611
  0.241784
  0.236691
  0.231597
  0.239237
  0.226504
  0.218864
   0.21377
   0.21377
  0.211224
   0.19849
   0.19085
   0.19085
  0.195944
   0.17557
  0.173023
  0.165383
  0.170477
  0.157743
   0.15265
  0.147556
  0.155196
  0.139916
  0.134823
  0.127183
  0.129729
  0.124636
  0.119543
  0.109356
  0.114449
  0.099169
  0.096622
  0.088982
  0.096622
  0.083889
  0.076249
  0.068609
  0.076249
  0.068609
  0.063515
  0.063515
  0.068609
  0.048235
  0.045688
  0.045688
  0.045688
  0.027862
  0.035502
  0.038048
  0.030408
  0.020221
  0.025315
  0.025315
  0.015128
  0.007488
  0.010035
  0.020221
  0.004941
 -0.002699
  0.002395
  0.004941
 -0.002699
  0.002395
  0.007488
  0.007488
 -0.012886
 -0.007792
 -0.002699
 -0.007792
 -0.010339
 -0.007792
 -0.002699
 -0.012886
 -0.010339
 -0.000152
 -0.010339
 -0.015432
 -0.010339
 -0.002699
 -0.010339
 -0.010339
 -0.007792
 -0.000152
 -0.005246
 -0.012886
 -0.012886
 -0.000152
 -0.007792
 -0.012886
 -0.002699
 -0.002699
 -0.007792
 -0.012886
 -0.007792
 -0.005246
 -0.010339
 -0.017979
 -0.015432
 -0.025619
 -0.038353
 -0.058726
 -0.053633
 -0.066366
 -0.074006
 -0.089287
 -0.089287
 -0.119847
  -0.13258
 -0.150407
 -0.145314
 -0.178421
 -0.178421
 -0.203888
 -0.203888
 -0.247182
 -0.252275
 -0.287929
 -0.277742
 -0.326129
 -0.331223
 -0.361783
 -0.359236
 -0.399984
  -0.40253
 -0.453464
 -0.450918
 -0.494211
 -0.489118
 -0.522225
 -0.529865
 -0.580799
 -0.580799
 -0.621546
 -0.613906
 -0.654653
 -0.675027
 -0.685214
 -0.718321
 -0.736148
 -0.759068
 -0.764161
 -0.789628
 -0.797268
 -0.830375
 -0.820189
 -0.850749
 -0.858389
 -0.888949
 -0.888949
 -0.899136
  -0.90423
 -0.929697
 -0.922056
 -0.947523
  -0.94243
 -0.955164
 -0.952617
  -0.95771
 -0.962804
 -0.978084
  -0.97299
 -0.970444
 -0.975537
 -0.970444
  -0.96535
 -0.960257
 -0.967897
 -0.962804
 -0.955164
 -0.952617
  -0.95771
 -0.932243
 -0.937337
 -0.929697
  -0.92715
 -0.901683
 -0.901683
 -0.886403
 -0.868576
 -0.866029
 -0.850749
 -0.835469
 -0.807455
 -0.810002
 -0.789628
 -0.779441
 -0.751428
 -0.756521
 -0.723414
 -0.715774
 -0.682667
  -0.68776
 -0.647013
  -0.64192
 -0.611359
 -0.611359
 -0.575706
 -0.575706
 -0.542599
 -0.540052
 -0.476384
 -0.489118
 -0.456011
 -0.445824
  -0.40253
 -0.412717
 -0.374517
 -0.374517
 -0.328676
 -0.336316
 -0.300662
 -0.298116
 -0.236995
 -0.254822
 -0.201341
 -0.201341
 -0.180968
 -0.178421
 -0.137674
 -0.122394
  -0.09438
   -0.0791
 -0.066366
 -0.038353
 -0.033259
 -0.012886
 -0.005246
  0.027862
  0.020221
  0.050782
  0.045688
  0.083889
  0.094076
  0.099169
  0.096622
  0.116996
  0.122089
  0.139916
  0.134823
  0.147556
   0.15265
   0.16793
  0.162836
  0.170477
  0.173023
   0.18321
  0.180663
  0.180663
  0.185757
  0.193397
  0.188303
   0.18321
  0.188303
   0.19085
  0.188303
  0.180663
   0.19085
  0.188303
  0.180663
  0.188303
   0.19085
   0.19085
   0.19085
   0.19849
   0.19849
   0.19085
   0.19849
  0.201037
  0.203584
   0.19849
   0.20613
  0.208677
   0.19849
  0.201037
  0.211224
  0.221411
  0.216317
   0.20613
  0.221411
  0.229051
  0.218864
  0.221411
  0.229051
  0.221411
  0.229051
  0.234144
  0.249424
  0.241784
  0.239237
  0.241784
  0.259611
  0.251971
  0.251971
  0.254518
  0.264704
  0.264704
  0.257064
  0.262158
  0.279985
  0.272344
  0.269798
  0.272344
  0.285078
  0.279985
  0.274891
  0.287625
  0.297811
  0.297811
  0.292718
  0.307998
  0.300358
  0.292718
  0.297811
  0.315638
  0.310545
  0.302905
  0.307998
  0.325825
  0.320732
  0.315638
  0.318185
  0.325825
  0.315638
  0.325825
  0.333465
  0.338559
  0.333465
  0.330919
  0.325825
  0.338559
  0.343652
  0.341105
  0.336012
  0.341105
  0.341105
  0.341105
  0.336012
  0.341105
  0.343652
  0.333465
  0.338559
  0.343652
  0.336012
  0.333465
  0.341105
  0.346199
  0.338559
  0.333465
  0.333465
  0.333465
  0.320732
  0.330919
  0.336012
  0.330919
  0.318185
  0.318185
  0.328372
  0.323278
  0.302905
  0.313092
  0.323278
  0.318185
  0.300358
  0.300358
  0.297811
  0.292718
  0.279985
  0.277438
  0.279985
  0.285078
  0.272344
  0.267251
  0.262158
  0.267251
  0.254518
  0.251971
  0.244331
  0.244331
  0.239237
  0.231597
  0.218864
  0.221411
  0.221411
   0.21377
   0.19849
  0.201037
  0.201037
   0.19085
   0.18321
  0.185757
   0.17557
  0.162836
  0.170477
   0.16793
  0.157743
  0.142463
  0.147556
  0.142463
   0.13737
  0.122089
  0.132276
  0.116996
  0.114449
  0.114449
  0.111903
  0.101716
  0.094076
  0.088982
  0.094076
  0.078795
  0.081342
  0.073702
  0.068609
  0.060969
  0.068609
  0.066062
  0.060969
  0.045688
  0.048235
  0.048235
  0.043142
  0.027862
  0.032955
  0.040595
  0.032955
  0.017675
  0.022768
  0.025315
  0.010035
  0.010035
  0.022768
  0.012581
  0.004941
 -0.005246
  0.004941
  0.007488
 -0.000152
 -0.000152
  0.002395
  0.010035
 -0.010339
 -0.012886
 -0.002699
 -0.010339
 -0.010339
 -0.007792
 -0.000152
 -0.005246
 -0.012886
 -0.010339
 -0.005246
 -0.010339
 -0.012886
 -0.010339
 -0.002699
 -0.012886
 -0.007792
 -0.002699
 -0.005246
 -0.012886
 -0.000152
 -0.010339
 -0.010339
 -0.005246
 -0.002699
 -0.007792
 -0.017979
 -0.005246
 -0.002699
 -0.007792
 -0.012886
 -0.007792
 -0.012886
 -0.030712
 -0.035806
 -0.051086
 -0.048539
  -0.07146
   -0.0791
 -0.089287
 -0.089287
 -0.119847
 -0.127487
 -0.152954
 -0.152954
 -0.175874
 -0.183514
 -0.208981
 -0.203888
 -0.249728
 -0.249728
 -0.285382
 -0.282836
 -0.326129
 -0.333769
 -0.361783
 -0.361783
 -0.405077
 -0.399984
 -0.445824
 -0.453464
 -0.494211
 -0.486571
 -0.527318
 -0.532412
 -0.580799
 -0.578252
 -0.608813
 -0.616453
 -0.662293
  -0.66484
 -0.690307
 -0.715774
 -0.723414
 -0.756521
 -0.764161
 -0.794722
 -0.804908
 -0.825282
 -0.825282
 -0.858389
 -0.868576
 -0.883856
 -0.881309
 -0.909323
 -0.909323
  -0.92715
  -0.91951
 -0.944977
 -0.947523
 -0.952617
  -0.95007
 -0.960257
 -0.970444
 -0.970444
 -0.967897
  -0.97299
 -0.975537
  -0.97299
 -0.967897
 -0.960257
 -0.967897
 -0.962804
 -0.955164
 -0.955164
 -0.960257
 -0.932243
  -0.93479
 -0.932243
 -0.924603
  -0.90423
 -0.909323
 -0.886403
 -0.868576
 -0.863482
 -0.853296
 -0.838015
 -0.804908
 -0.810002
 -0.787082
 -0.779441
 -0.748881
 -0.753974
 -0.718321
 -0.713227
 -0.677574
  -0.68776
  -0.64956
  -0.64192
 -0.608813
 -0.606266
 -0.568066
 -0.583346
 -0.542599
 -0.534959
 -0.486571
 -0.491665
 -0.456011
 -0.450918
 -0.405077
 -0.412717
  -0.37961
  -0.37197
 -0.326129
 -0.333769
 -0.298116
 -0.298116
 -0.249728
 -0.252275
 -0.208981
 -0.201341
 -0.178421
 -0.183514
 -0.145314
  -0.12494
 -0.104567
 -0.084193
  -0.06382
 -0.035806
 -0.035806
 -0.015432
 -0.007792
  0.027862
  0.022768
  0.045688
  0.048235
  0.086436
  0.078795
  0.096622
  0.101716
  0.124636
  0.116996
  0.134823
   0.13737
   0.15265
  0.147556
  0.162836
   0.16793
  0.185757
  0.180663
  0.173023
  0.178117
   0.19085
  0.185757
  0.185757
  0.188303
   0.19085
  0.185757
  0.180663
   0.19085
  0.188303
   0.18321
  0.188303
   0.19085
  0.188303
  0.188303
   0.19085
   0.19085
   0.19085
  0.195944
  0.195944
   0.19085
   0.19085
   0.20613
  0.208677
   0.19849
   0.20613
  0.208677
   0.20613
  0.208677
  0.208677
  0.221411
  0.211224
  0.218864
  0.226504
  0.229051
  0.223957
  0.223957
  0.229051
  0.234144
  0.229051
  0.241784
  0.249424
  0.236691
  0.246877
  0.259611
  0.251971
  0.246877
  0.249424
  0.262158
  0.259611
  0.262158
  0.267251
  0.269798
  0.267251
  0.272344
  0.277438
  0.274891
  0.279985
  0.287625
  0.290171
  0.287625
  0.297811
  0.313092
  0.297811
  0.292718
  0.300358
  0.302905
  0.313092
  0.305452
  0.310545
  0.313092
  0.320732
  0.315638
  0.318185
  0.323278
  0.318185
  0.318185
  0.336012
  0.330919
  0.328372
  0.330919
  0.336012
  0.320732
  0.336012
  0.348745
  0.336012
  0.336012
  0.338559
  0.338559
  0.333465
  0.336012
  0.343652
  0.338559
  0.341105
  0.343652
  0.341105
  0.333465
  0.338559
  0.343652
  0.341105
  0.333465
  0.341105
  0.333465
  0.330919
  0.323278
  0.325825
  0.330919
  0.333465
  0.320732
  0.307998
  0.320732
  0.320732
  0.310545
  0.313092
  0.307998
  0.310545
  0.305452
  0.300358
  0.290171
  0.292718
  0.285078
  0.279985
  0.274891
  0.279985
  0.274891
  0.279985
  0.262158
  0.257064
  0.254518
  0.259611
  0.244331
  0.239237
  0.231597
  0.241784
  0.226504
  0.221411
   0.21377
  0.221411
   0.20613
  0.203584
   0.19085
   0.19085
  0.188303
  0.180663
  0.170477
  0.170477
  0.165383
  0.165383
  0.157743
   0.14501
  0.150103
  0.139916
  0.142463
  0.124636
  0.119543
  0.119543
  0.122089
  0.109356
  0.104262
  0.099169
  0.099169
  0.094076
  0.094076
  0.068609
  0.081342
  0.076249
  0.068609
  0.066062
  0.063515
  0.058422
  0.063515
  0.053329
  0.048235
  0.043142
  0.050782
  0.032955
  0.022768
  0.032955
  0.038048
  0.022768
  0.022768
  0.027862
  0.015128
  0.012581
  0.017675
  0.010035
 -0.000152
  0.002395
  0.007488
  0.004941
 -0.005246
  0.007488
  0.010035
 -0.005246
 -0.005246
 -0.002699
 -0.010339
 -0.010339
 -0.005246
 -0.005246
 -0.007792
 -0.012886
 -0.012886
 -0.002699
 -0.010339
 -0.010339
 -0.002699
 -0.005246
 -0.012886
 -0.010339
 -0.002699
 -0.007792
 -0.015432
 -0.002699
 -0.010339
 -0.010339
 -0.007792
 -0.002699
 -0.007792
 -0.012886
 -0.007792
 -0.000152
 -0.007792
 -0.012886
 -0.007792
 -0.005246
 -0.020526
 -0.028166
 -0.030712
 -0.053633
 -0.061273
  -0.07146
  -0.06382
  -0.09438
  -0.09438
   -0.1173
   -0.1173
 -0.155501
 -0.152954
 -0.175874
 -0.178421
 -0.216621
 -0.203888
 -0.247182
 -0.252275
 -0.287929
 -0.282836
 -0.326129
 -0.326129
  -0.35669
 -0.361783
 -0.405077
  -0.39489
 -0.450918
 -0.458558
 -0.489118
 -0.491665
 -0.532412
 -0.527318
 -0.573159
 -0.575706
 -0.616453
 -0.608813
   -0.6572
 -0.667387
 -0.690307
 -0.713227
 -0.738694
 -0.759068
 -0.764161
 -0.787082
 -0.804908
 -0.820189
 -0.827829
 -0.860936
 -0.855842
 -0.883856
 -0.888949
  -0.90423
 -0.899136
 -0.924603
 -0.924603
 -0.939883
 -0.947523
 -0.955164
  -0.95007
 -0.962804
 -0.967897
 -0.970444
 -0.970444
 -0.978084
 -0.975537
  -0.97299
  -0.97299
 -0.970444
 -0.960257
  -0.95771
 -0.960257
  -0.95771
 -0.952617
 -0.937337
  -0.93479
 -0.929697
  -0.91951
 -0.901683
 -0.906776
 -0.881309
 -0.876216
 -0.868576
 -0.848202
 -0.838015
 -0.820189
 -0.807455
 -0.774348
 -0.781988
 -0.756521
 -0.751428
 -0.723414
 -0.725961
 -0.685214
 -0.675027
 -0.644466
  -0.64956
 -0.603719
 -0.606266
 -0.583346
 -0.573159
 -0.532412
 -0.534959
 -0.496758
 -0.486571
 -0.450918
 -0.453464
 -0.412717
 -0.405077
  -0.37197
 -0.377063
 -0.331223
 -0.328676
 -0.300662
 -0.298116
 -0.244635
 -0.247182
 -0.208981
 -0.201341
 -0.178421
 -0.186061
 -0.142767
  -0.13258
 -0.107113
   -0.0791
 -0.056179
 -0.045993
 -0.028166
 -0.002699
 -0.007792
  0.022768
  0.027862
  0.048235
  0.048235
  0.081342
  0.088982
  0.099169
  0.091529
  0.116996
  0.116996
  0.132276
   0.13737
   0.15265
  0.147556
  0.165383
   0.16793
  0.180663
  0.173023
  0.178117
   0.18321
  0.185757
   0.18321
   0.19085
  0.185757
  0.180663
  0.188303
   0.19085
  0.188303
  0.180663
  0.188303
   0.19085
   0.18321
  0.185757
   0.19085
  0.188303
  0.185757
  0.195944
  0.201037
  0.193397
   0.19085
  0.201037
  0.203584
   0.19849
   0.20613
  0.208677
   0.20613
  0.193397
  0.211224
  0.221411
   0.21377
  0.211224
  0.221411
  0.226504
  0.218864
  0.223957
  0.229051
  0.226504
  0.231597
  0.231597
  0.249424
  0.244331
  0.236691
  0.244331
  0.254518
  0.251971
  0.249424
  0.257064
  0.262158
  0.254518
  0.262158
  0.264704
  0.272344
  0.267251
  0.274891
  0.272344
  0.274891
  0.282531
  0.285078
  0.287625
  0.287625
  0.300358
  0.300358
  0.297811
  0.300358
  0.305452
  0.295265
  0.310545
  0.310545
  0.310545
  0.307998
  0.315638
  0.323278
  0.320732
  0.313092
  0.320732
  0.328372
  0.333465
  0.323278
  0.328372
  0.330919
  0.325825
  0.330919
  0.341105
  0.338559
  0.336012
  0.346199
  0.338559
  0.333465
  0.341105
  0.346199
  0.341105
  0.336012
  0.336012
  0.348745
  0.343652
  0.338559
  0.333465
  0.341105
  0.343652
  0.341105
  0.333465
  0.330919
  0.333465
  0.328372
  0.320732
  0.330919
  0.333465
  0.323278
  0.318185
  0.320732
  0.323278
  0.307998
  0.305452
  0.313092
  0.315638
  0.297811
  0.295265
  0.287625
  0.290171
  0.279985
  0.272344
  0.279985
  0.287625
  0.272344
  0.267251
  0.264704
  0.264704
  0.254518
  0.251971
  0.241784
  0.249424
  0.234144
  0.229051
  0.221411
  0.221411
  0.218864
   0.21377
   0.19849
  0.201037
   0.19849
  0.193397
  0.180663
   0.18321
   0.17557
   0.17557
   0.16793
   0.15265
  0.157743
  0.150103
  0.147556
  0.132276
  0.139916
  0.134823
  0.134823
  0.116996
  0.114449
  0.109356
  0.116996
  0.094076
  0.096622
  0.088982
  0.094076
  0.081342
  0.076249
  0.071155
  0.071155
  0.068609
  0.066062
  0.063515
  0.068609
  0.048235
  0.048235
  0.045688
  0.043142
  0.038048
  0.027862
  0.025315
  0.027862
  0.027862
  0.020221
  0.017675
  0.022768
  0.012581
  0.017675
  0.015128
 -0.000152
  0.002395
  0.007488
  0.007488
  0.004941
 -0.002699
  0.004941
  0.010035
 -0.007792
 -0.007792
 -0.012886
 -0.007792
 -0.002699
 -0.010339
 -0.012886
 -0.007792
 -0.010339
 -0.002699
 -0.010339
 -0.012886
 -0.007792
 -0.007792
 -0.007792
 -0.005246
 -0.012886
 -0.007792
 -0.002699
 -0.005246
 -0.012886
 -0.007792
  0.002395
 -0.010339
 -0.012886
 -0.012886
 -0.002699
 -0.007792
 -0.012886
 -0.007792
 -0.007792
 -0.015432
 -0.012886
 -0.023072
 -0.033259
 -0.056179
 -0.053633
  -0.07146
 -0.074006
 -0.091833
 -0.084193
 -0.122394
 -0.127487
 -0.152954
 -0.145314
 -0.175874
 -0.183514
 -0.208981
 -0.203888
 -0.254822
 -0.249728
 -0.277742
 -0.287929
 -0.331223
 -0.321036
  -0.36433
  -0.36433
 -0.405077
  -0.39489
 -0.450918
 -0.453464
 -0.484025
 -0.484025
 -0.529865
 -0.527318
 -0.580799
 -0.580799
 -0.621546
 -0.611359
 -0.654653
   -0.6572
 -0.692854
 -0.710681
 -0.736148
 -0.753974
 -0.761615
 -0.789628
 -0.802362
 -0.822735
 -0.827829
 -0.860936
 -0.855842
 -0.878763
 -0.883856
 -0.909323
 -0.901683
  -0.92715
 -0.929697
 -0.947523
 -0.944977
 -0.960257
 -0.952617
 -0.955164
 -0.960257
  -0.97299
 -0.970444
  -0.97299
 -0.975537
 -0.970444
 -0.967897
 -0.967897
 -0.962804
  -0.95771
  -0.95771
 -0.960257
 -0.955164
 -0.937337
 -0.939883
  -0.92715
  -0.91951
 -0.909323
 -0.906776
 -0.883856
 -0.883856
 -0.868576
 -0.838015
 -0.835469
 -0.815095
 -0.804908
 -0.784535
 -0.784535
 -0.751428
 -0.743788
 -0.728508
 -0.725961
 -0.675027
 -0.682667
 -0.644466
 -0.636826
 -0.603719
 -0.611359
 -0.575706
 -0.575706
 -0.547692
 -0.532412
 -0.481478
 -0.494211
 -0.450918
 -0.443277
 -0.412717
 -0.415264
  -0.36433
 -0.377063
 -0.338863
 -0.331223
 -0.293022
 -0.300662
 -0.247182
 -0.242088
 -0.208981
 -0.216621
 -0.178421
 -0.180968
 -0.145314
 -0.135127
 -0.096927
  -0.08674
  -0.06382
 -0.033259
 -0.040899
 -0.012886
 -0.002699
  0.020221
  0.017675
  0.055875
  0.058422
  0.076249
  0.078795
  0.101716
  0.094076
  0.114449
  0.127183
  0.132276
  0.139916
  0.150103
  0.147556
   0.16793
  0.178117
  0.180663
  0.178117
  0.188303
  0.180663
   0.18321
  0.188303
  0.185757
  0.180663
  0.185757
  0.188303
   0.18321
  0.185757
   0.19085
  0.180663
  0.185757
   0.19085
  0.185757
  0.178117
  0.185757
   0.19085
   0.19085
  0.193397
   0.20613
  0.195944
   0.19085
   0.20613
  0.211224
  0.201037
   0.19849
  0.208677
  0.208677
  0.211224
  0.216317
  0.216317
   0.21377
  0.218864
  0.226504
  0.229051
  0.218864
  0.223957
  0.229051
  0.231597
  0.229051
  0.241784
  0.246877
  0.239237
  0.241784
  0.264704
  0.251971
  0.251971
  0.251971
  0.259611
  0.257064
  0.262158
  0.269798
  0.272344
  0.262158
  0.274891
  0.269798
  0.274891
  0.279985
  0.287625
  0.279985
  0.290171
  0.302905
  0.300358
  0.295265
  0.295265
  0.307998
  0.300358
  0.302905
  0.310545
  0.313092
  0.307998
  0.323278
  0.313092
  0.318185
  0.320732
  0.320732
  0.315638
  0.328372
  0.336012
  0.330919
  0.330919
  0.325825
  0.333465
  0.343652
  0.343652
  0.338559
  0.333465
  0.343652
  0.336012
  0.343652
  0.338559
  0.333465
  0.333465
  0.336012
  0.343652
  0.341105
  0.333465
  0.338559
  0.336012
  0.333465
  0.338559
  0.343652
  0.333465
  0.323278
  0.330919
  0.336012
  0.330919
  0.320732
  0.315638
  0.323278
  0.318185
  0.318185
  0.315638
  0.313092
  0.305452
  0.310545
  0.305452
  0.302905
  0.285078
  0.290171
  0.287625
  0.277438
  0.282531
  0.285078
  0.274891
  0.272344
  0.267251
  0.262158
  0.251971
  0.251971
  0.246877
  0.234144
  0.236691
  0.239237
  0.223957
  0.221411
  0.221411
  0.211224
  0.203584
   0.19849
   0.19849
   0.19085
  0.180663
  0.178117
   0.18321
  0.170477
  0.165383
  0.157743
  0.162836
   0.14501
   0.14501
   0.14501
  0.139916
  0.124636
  0.129729
  0.127183
  0.119543
  0.104262
  0.109356
  0.104262
  0.096622
  0.088982
  0.096622
  0.081342
  0.073702
  0.071155
  0.071155
  0.063515
  0.068609
  0.066062
  0.060969
  0.050782
  0.055875
  0.045688
  0.035502
  0.040595
  0.032955
  0.027862
  0.030408
  0.027862
  0.020221
  0.015128
  0.022768
  0.002395
  0.010035
  0.012581
  0.010035
  0.004941
 -0.002699
  0.007488
  0.004941
 -0.002699
  0.002395
  0.007488
 -0.010339
 -0.012886
 -0.010339
 -0.002699
 -0.010339
 -0.012886
 -0.002699
 -0.010339
 -0.012886
 -0.012886
 -0.002699
 -0.012886
 -0.010339
  0.002395
 -0.007792
 -0.010339
 -0.000152
 -0.007792
 -0.012886
 -0.002699
 -0.002699
 -0.012886
 -0.007792
 -0.002699
 -0.007792
 -0.007792
 -0.005246
 -0.005246
 -0.012886
 -0.002699
 -0.005246
 -0.015432
 -0.020526
 -0.023072
 -0.033259
 -0.053633
 -0.056179
  -0.06382
   -0.0791
 -0.091833
 -0.084193
 -0.119847
 -0.127487
 -0.152954
 -0.142767
 -0.175874
 -0.183514
 -0.206435
 -0.206435
 -0.239542
 -0.259915
 -0.285382
 -0.280289
 -0.326129
 -0.323583
 -0.369423
 -0.361783
 -0.397437
 -0.399984
 -0.458558
 -0.448371
 -0.491665
 -0.489118
 -0.534959
 -0.527318
 -0.573159
 -0.575706
 -0.616453
 -0.611359
 -0.644466
 -0.652107
 -0.697947
 -0.703041
 -0.725961
 -0.753974
 -0.776895
 -0.792175
 -0.792175
 -0.820189
 -0.827829
 -0.863482
 -0.850749
 -0.883856
 -0.886403
  -0.90423
 -0.901683
 -0.922056
 -0.924603
  -0.95007
  -0.94243
  -0.95007
  -0.95007
 -0.970444
 -0.962804
 -0.970444
  -0.97299
 -0.975537
 -0.970444
 -0.970444
  -0.97299
 -0.960257
 -0.970444
 -0.962804
 -0.960257
 -0.955164
 -0.960257
  -0.93479
 -0.929697
 -0.922056
  -0.93479
 -0.901683
 -0.901683
 -0.886403
 -0.888949
 -0.866029
 -0.853296
 -0.840562
 -0.817642
 -0.802362
 -0.781988
 -0.781988
 -0.751428
 -0.748881
 -0.728508
 -0.720867
 -0.685214
 -0.690307
 -0.644466
 -0.639373
 -0.613906
 -0.611359
 -0.573159
 -0.573159
 -0.542599
 -0.537505
 -0.484025
 -0.486571
 -0.450918
 -0.445824
  -0.41017
 -0.415264
  -0.37197
  -0.37197
  -0.34141
 -0.333769
 -0.290476
 -0.295569
 -0.247182
 -0.244635
 -0.208981
 -0.208981
 -0.183514
 -0.173328
 -0.145314
  -0.14022
 -0.096927
  -0.08674
  -0.07146
 -0.043446
 -0.030712
 -0.012886
 -0.012886
  0.017675
  0.025315
  0.050782
  0.043142
  0.078795
  0.086436
  0.096622
  0.109356
  0.124636
  0.122089
  0.134823
  0.139916
  0.150103
  0.150103
  0.162836
   0.16793
   0.18321
  0.173023
  0.180663
  0.185757
  0.185757
  0.185757
  0.188303
   0.19085
  0.188303
  0.178117
  0.188303
   0.19085
   0.18321
  0.188303
   0.19085
  0.188303
   0.18321
  0.185757
   0.19085
   0.19085
   0.19085
   0.19849
   0.19849
  0.193397
   0.19085
  0.208677
   0.19849
  0.203584
   0.20613
   0.20613
  0.208677
   0.21377
  0.208677
  0.216317
  0.218864
  0.229051
  0.218864
  0.221411
  0.229051
  0.223957
  0.216317
  0.231597
  0.241784
  0.246877
  0.239237
  0.244331
  0.249424
  0.251971
  0.246877
  0.251971
  0.262158
  0.269798
  0.269798
  0.254518
  0.262158
  0.274891
  0.272344
  0.267251
  0.274891
  0.287625
  0.285078
  0.277438
  0.287625
  0.295265
  0.295265
  0.290171
  0.297811
  0.302905
  0.302905
  0.290171
  0.307998
  0.315638
  0.305452
  0.307998
  0.323278
  0.320732
  0.313092
  0.320732
  0.323278
  0.320732
  0.323278
  0.323278
  0.325825
  0.338559
  0.330919
  0.323278
  0.341105
  0.336012
  0.333465
  0.341105
  0.343652
  0.341105
  0.330919
  0.333465
  0.338559
  0.343652
  0.338559
  0.333465
  0.336012
  0.343652
  0.336012
  0.341105
  0.341105
  0.346199
  0.338559
  0.328372
  0.330919
  0.333465
  0.330919
  0.325825
  0.330919
  0.323278
  0.320732
  0.315638
  0.320732
  0.318185
  0.313092
  0.302905
  0.305452
  0.297811
  0.305452
  0.290171
  0.287625
  0.279985
  0.282531
  0.282531
  0.274891
  0.269798
  0.279985
  0.264704
  0.257064
  0.249424
  0.251971
  0.246877
  0.239237
  0.229051
  0.234144
  0.229051
  0.221411
  0.211224
   0.21377
   0.20613
  0.201037
   0.19085
   0.19085
   0.19085
   0.18321
  0.170477
  0.165383
   0.17557
  0.162836
   0.15265
  0.150103
   0.15265
   0.13737
   0.13737
   0.13737
  0.129729
  0.111903
  0.122089
  0.111903
  0.109356
  0.094076
  0.104262
  0.088982
  0.081342
  0.081342
  0.086436
  0.071155
  0.066062
  0.071155
  0.073702
  0.063515
  0.053329
  0.050782
  0.058422
  0.043142
  0.038048
  0.030408
  0.038048
  0.030408
  0.027862
  0.022768
  0.022768
  0.017675
  0.022768
  0.017675
  0.012581
  0.007488
 -0.000152
 -0.000152
  0.007488
  0.004941
 -0.005246
  0.002395
  0.007488
 -0.000152
 -0.012886
 -0.005246
 -0.005246
 -0.002699
 -0.007792
 -0.012886
 -0.017979
 -0.005246
 -0.005246
 -0.012886
 -0.007792
 -0.007792
 -0.012886
 -0.010339
 -0.012886
 -0.007792
 -0.002699
 -0.007792
 -0.012886
 -0.012886
 -0.007792
 -0.002699
 -0.005246
 -0.012886
 -0.012886
 -0.005246
 -0.002699
 -0.005246
 -0.012886
 -0.012886
 -0.010339
 -0.002699
 -0.012886
 -0.035806
 -0.043446
 -0.053633
 -0.048539
 -0.066366
 -0.076553
  -0.09438
 -0.089287
   -0.1173
 -0.114753
 -0.152954
 -0.152954
 -0.173328
 -0.186061
 -0.214075
 -0.206435
 -0.242088
 -0.247182
 -0.290476
 -0.293022
 -0.326129
 -0.323583
  -0.36433
  -0.36433
  -0.40253
 -0.397437
 -0.453464
 -0.458558
 -0.489118
 -0.486571
 -0.522225
 -0.529865
 -0.578252
 -0.573159
 -0.611359
    -0.619
   -0.6572
 -0.654653
 -0.685214
   -0.6954
 -0.741241
 -0.748881
 -0.759068
 -0.784535
 -0.802362
 -0.822735
 -0.822735
 -0.850749
 -0.866029
 -0.883856
 -0.883856
  -0.90423
  -0.91187
 -0.922056
  -0.91951
  -0.94243
  -0.95007
 -0.955164
  -0.95007
 -0.960257
 -0.967897
 -0.975537
 -0.970444
 -0.970444
 -0.980631
  -0.97299
 -0.970444
  -0.96535
 -0.967897
 -0.970444
 -0.960257
 -0.955164
  -0.95007
 -0.939883
 -0.939883
  -0.91951
 -0.922056
  -0.91187
 -0.906776
 -0.883856
 -0.888949
 -0.863482
 -0.858389
 -0.838015
 -0.817642
 -0.804908
 -0.784535
 -0.787082
 -0.751428
 -0.748881
 -0.715774
 -0.723414
  -0.68776
 -0.682667
 -0.647013
 -0.639373
 -0.606266
 -0.608813
 -0.575706
 -0.573159
 -0.540052
 -0.542599
 -0.496758
 -0.491665
 -0.443277
 -0.450918
  -0.41781
  -0.41017
 -0.369423
  -0.37197
 -0.338863
 -0.336316
 -0.295569
 -0.290476
 -0.252275
 -0.247182
 -0.206435
 -0.208981
 -0.188608
 -0.178421
 -0.135127
  -0.14022
  -0.10202
  -0.09438
  -0.06382
 -0.040899
 -0.038353
 -0.020526
 -0.010339
  0.025315
  0.022768
  0.048235
  0.048235
  0.078795
  0.083889
  0.101716
  0.096622
  0.114449
  0.122089
  0.142463
   0.13737
   0.14501
   0.14501
  0.165383
  0.173023
  0.178117
  0.173023
  0.178117
   0.17557
  0.188303
  0.180663
  0.188303
  0.193397
  0.188303
   0.18321
  0.188303
   0.19085
  0.185757
   0.18321
   0.19085
   0.19085
  0.185757
  0.180663
  0.188303
   0.19085
  0.193397
   0.19085
   0.19085
  0.195944
   0.19849
  0.203584
  0.195944
  0.208677
  0.211224
  0.203584
   0.19849
  0.221411
   0.21377
  0.211224
  0.208677
  0.229051
  0.221411
   0.21377
  0.223957
  0.226504
  0.223957
  0.226504
  0.236691
  0.249424
  0.244331
  0.239237
  0.241784
  0.262158
  0.254518
  0.246877
  0.251971
  0.267251
  0.267251
  0.259611
  0.262158
  0.277438
  0.269798
  0.267251
  0.277438
  0.285078
  0.277438
  0.282531
  0.290171
  0.290171
  0.292718
  0.302905
  0.307998
  0.297811
  0.290171
  0.302905
  0.315638
  0.313092
  0.307998
  0.310545
  0.325825
  0.320732
  0.315638
  0.320732
  0.330919
